time,chest_lead,accel_magnitude,respiration
0.000000,-0.053819,0.014624,0.092690
0.004167,0.020349,-0.012341,0.098309
0.008333,-0.012899,0.005417,0.124514
0.012500,0.022955,0.021967,0.119553
0.016667,0.034395,0.059695,0.126671
0.020833,0.011640,0.141803,0.129300
0.025000,0.077391,0.105276,0.146189
0.029167,0.090725,0.149696,0.168102
0.033333,0.122813,0.174647,0.170105
0.037500,0.113460,0.102844,0.147966
0.041667,0.102607,0.128454,0.178913
0.045833,0.049958,0.145477,0.167868
0.050000,0.087551,0.164058,0.170030
0.054167,0.112801,0.213540,0.207948
0.058333,0.099364,0.182871,0.209278
0.062500,0.132864,0.240012,0.202862
0.066667,0.125833,0.208876,0.218711
0.070833,0.139219,0.256361,0.201127
0.075000,0.197211,0.288370,0.221444
0.079167,0.148675,0.278905,0.234958
0.083333,0.185698,0.295121,0.252929
0.087500,0.149012,0.216317,0.232290
0.091667,0.206571,0.284346,0.260839
0.095833,0.204415,0.254810,0.245675
0.100000,0.203782,0.202897,0.250676
0.104167,0.199344,0.205121,0.277781
0.108333,0.127432,0.270894,0.262239
0.112500,0.157809,0.245972,0.288128
0.116667,0.121067,0.204798,0.282438
0.120833,0.138308,0.208813,0.293584
0.125000,0.200792,0.267370,0.315221
0.129167,0.148266,0.174035,0.315208
0.133333,0.206375,0.186991,0.326060
0.137500,0.156203,0.147180,0.332997
0.141667,0.134465,0.166654,0.329932
0.145833,0.173516,0.156245,0.342015
0.150000,0.204863,0.125154,0.344678
0.154167,0.117108,0.137505,0.333737
0.158333,0.100583,0.132710,0.343259
0.162500,0.096643,0.090873,0.356716
0.166667,0.115540,0.065607,0.376178
0.170833,0.170457,0.106274,0.384355
0.175000,0.172186,0.050503,0.385577
0.179167,0.098283,0.129660,0.386003
0.183333,0.189411,0.098944,0.380724
0.187500,0.105919,0.020291,0.407494
0.191667,0.171511,0.021928,0.389012
0.195833,0.162996,0.063708,0.401810
0.200000,0.084171,0.025338,0.422201
0.204167,0.089980,0.087728,0.405858
0.208333,0.044769,0.008104,0.430099
0.212500,0.037030,0.030769,0.443734
0.216667,0.124838,0.058878,0.445561
0.220833,0.139574,0.032039,0.424624
0.225000,0.110964,0.085212,0.450841
0.229167,0.057094,0.029174,0.455023
0.233333,0.053356,0.004704,0.468744
0.237500,0.050113,0.018056,0.461090
0.241667,0.063548,0.041638,0.464609
0.245833,0.085713,0.082970,0.462142
0.250000,0.029740,0.066811,0.466596
0.254167,0.053926,0.085119,0.479177
0.258333,0.012785,0.127902,0.500655
0.262500,0.045491,0.047783,0.486823
0.266667,0.035583,0.087172,0.509808
0.270833,0.004114,0.148712,0.528304
0.275000,0.050641,0.084966,0.525608
0.279167,0.079247,0.092355,0.513487
0.283333,0.023933,0.143329,0.518885
0.287500,0.041522,0.212272,0.544182
0.291667,0.066886,0.191968,0.543583
0.295833,0.006797,0.256979,0.540729
0.300000,0.001860,0.216976,0.538089
0.304167,0.073965,0.201462,0.570370
0.308333,0.078862,0.205828,0.572559
0.312500,0.036540,0.296661,0.581911
0.316667,0.092416,0.308022,0.582859
0.320833,0.048621,0.302296,0.564499
0.325000,-0.011543,0.323656,0.575047
0.329167,0.054051,0.329190,0.597930
0.333333,-0.013873,0.327361,0.602303
0.337500,0.081201,0.426337,0.593345
0.341667,-0.007045,0.363664,0.605662
0.345833,0.064575,0.415872,0.604958
0.350000,0.071691,0.388761,0.610226
0.354167,0.040254,0.499249,0.626771
0.358333,0.059953,0.440931,0.647480
0.362500,0.090657,0.475608,0.618777
0.366667,0.030380,0.525432,0.647961
0.370833,0.088873,0.464225,0.645734
0.375000,0.061642,0.519640,0.637678
0.379167,0.054367,0.489950,0.672771
0.383333,0.087913,0.513526,0.664466
0.387500,0.135876,0.479370,0.673132
0.391667,0.018509,0.562360,0.688689
0.395833,0.094858,0.505939,0.687324
0.400000,0.068726,0.573846,0.694178
0.404167,0.122140,0.517453,0.676296
0.408333,0.095191,0.494960,0.676889
0.412500,0.107950,0.526964,0.707148
0.416667,0.093627,0.452683,0.706407
0.420833,0.114805,0.501207,0.710167
0.425000,0.124117,0.433949,0.719072
0.429167,0.068153,0.492853,0.724072
0.433333,0.125577,0.441949,0.725141
0.437500,0.083537,0.460613,0.729826
0.441667,0.027958,0.459212,0.721638
0.445833,0.031014,0.473854,0.744476
0.450000,0.046436,0.427671,0.730498
0.454167,0.105514,0.411472,0.762003
0.458333,0.020841,0.369462,0.757795
0.462500,0.084913,0.330739,0.740381
0.466667,0.054608,0.370973,0.746940
0.470833,0.129447,0.334880,0.778748
0.475000,0.033304,0.361726,0.756480
0.479167,0.054443,0.327380,0.770886
0.483333,0.039528,0.370496,0.762140
0.487500,0.008242,0.323968,0.773781
0.491667,0.017665,0.326293,0.769174
0.495833,0.028268,0.303183,0.802237
0.500000,-0.007672,0.334328,0.796760
0.504167,0.023140,0.255070,0.790690
0.508333,-0.038616,0.289799,0.806521
0.512500,-0.043221,0.195239,0.822190
0.516667,0.044259,0.217015,0.799608
0.520833,0.061920,0.230222,0.806932
0.525000,-0.000636,0.227520,0.821458
0.529167,0.013981,0.245062,0.809731
0.533333,-0.035537,0.240623,0.828152
0.537500,-0.021461,0.232885,0.832200
0.541667,-0.067888,0.237161,0.839997
0.545833,-0.076429,0.207248,0.838692
0.550000,-0.101624,0.211478,0.827415
0.554167,-0.079633,0.188864,0.834655
0.558333,-0.053906,0.209664,0.856536
0.562500,-0.095623,0.222593,0.852757
0.566667,-0.075143,0.260937,0.859472
0.570833,-0.138101,0.261417,0.862892
0.575000,-0.063573,0.224118,0.853646
0.579167,-0.096251,0.269033,0.881857
0.583333,-0.122970,0.261164,0.888792
0.587500,-0.068386,0.316069,0.869007
0.591667,-0.113583,0.312739,0.891551
0.595833,-0.110406,0.337010,0.886346
0.600000,-0.099283,0.360757,0.883608
0.604167,-0.156168,0.303592,0.883230
0.608333,-0.161757,0.370061,0.893892
0.612500,-0.155857,0.328924,0.897288
0.616667,-0.118116,0.385032,0.903174
0.620833,-0.095846,0.331026,0.894201
0.625000,-0.190031,0.450269,0.895214
0.629167,-0.159678,0.368674,0.899416
0.633333,-0.131635,0.384556,0.926160
0.637500,-0.128560,0.480969,0.910768
0.641667,-0.135645,0.438694,0.928779
0.645833,-0.196298,0.530900,0.933895
0.650000,-0.131628,0.498249,0.936392
0.654167,-0.113070,0.447921,0.916874
0.658333,-0.191918,0.462664,0.937495
0.662500,-0.150730,0.500178,0.947598
0.666667,-0.103473,0.486320,0.944274
0.670833,-0.111127,0.503496,0.958491
0.675000,-0.111967,0.553591,0.930667
0.679167,-0.150936,0.588941,0.954614
0.683333,-0.080042,0.504929,0.937866
0.687500,-0.108867,0.570180,0.962184
0.691667,-0.169707,0.564095,0.965504
0.695833,-0.098679,0.535940,0.950655
0.700000,-0.067540,0.582517,0.960888
0.704167,-0.131201,0.514326,0.966313
0.708333,-0.044713,0.561435,0.970535
0.712500,-0.144375,0.576678,0.980843
0.716667,-0.068042,0.568449,0.961968
0.720833,-0.054493,0.572505,0.954589
0.725000,-0.025487,0.509047,0.959972
0.729167,-0.061916,0.512419,0.988224
0.733333,-0.040729,0.554319,0.985009
0.737500,-0.074402,0.465140,0.996353
0.741667,0.008171,0.499627,0.971666
0.745833,-0.054861,0.501081,0.972815
0.750000,-0.013136,0.451125,0.999136
0.754167,0.054487,0.421871,0.980349
0.758333,0.039264,0.408001,0.977381
0.762500,0.007925,0.487476,0.981590
0.766667,0.012460,0.396303,0.997403
0.770833,0.045715,0.371463,0.979067
0.775000,0.054335,0.424148,1.011727
0.779167,-0.010860,0.397568,0.991558
0.783333,0.058462,0.353705,1.016188
0.787500,0.106085,0.387825,0.998689
0.791667,0.104234,0.277811,0.989052
0.795833,0.083477,0.358081,0.996237
0.800000,0.116043,0.235964,1.020093
0.804167,0.114162,0.235059,1.012507
0.808333,0.055264,0.313778,0.997402
0.812500,0.084648,0.297212,1.009012
0.816667,0.068063,0.295519,1.010654
0.820833,0.116227,0.172010,1.007627
0.825000,0.106017,0.161725,1.011371
0.829167,0.077100,0.147652,1.027018
0.833333,0.162882,0.200392,1.011674
0.837500,0.156454,0.230966,1.017365
0.841667,0.140840,0.146866,1.015210
0.845833,0.092460,0.197204,1.031624
0.850000,0.091343,0.195706,1.019712
0.854167,0.201196,0.201986,1.016057
0.858333,0.156541,0.183554,1.035409
0.862500,0.141463,0.175129,1.014174
0.866667,0.190218,0.122079,1.027008
0.870833,0.155275,0.173067,1.012040
0.875000,0.134485,0.125312,1.037089
0.879167,0.113305,0.204760,1.019264
0.883333,0.099699,0.213647,1.042747
0.887500,0.206350,0.189995,1.016294
0.891667,0.168237,0.188055,1.023239
0.895833,0.136468,0.206596,1.011119
0.900000,0.111087,0.199852,1.044634
0.904167,0.111829,0.227895,1.024611
0.908333,0.137660,0.181987,1.034590
0.912500,0.093249,0.197652,1.033737
0.916667,0.116663,0.237524,1.045237
0.920833,0.173899,0.262832,1.019680
0.925000,0.139060,0.214266,1.043494
0.929167,0.168768,0.283329,1.026746
0.933333,0.166559,0.279184,1.014536
0.937500,0.182838,0.330731,1.026226
0.941667,0.137600,0.243454,1.023396
0.945833,0.130417,0.313039,1.014044
0.950000,0.156016,0.362783,1.012781
0.954167,0.146136,0.332385,1.018430
0.958333,0.241248,0.320238,1.029973
0.962500,0.173484,0.368827,1.038605
0.966667,0.193536,0.396225,1.043883
0.970833,0.169679,0.334767,1.017020
0.975000,0.188845,0.329759,1.038117
0.979167,0.150289,0.365985,1.042846
0.983333,0.132632,0.344672,1.023626
0.987500,0.119473,0.434831,1.025455
0.991667,0.079509,0.341539,1.038523
0.995833,0.158085,0.397113,1.034690
1.000000,0.145287,0.419000,1.031975
1.004167,0.070723,0.384847,1.013782
1.008333,0.103379,0.365367,1.011043
1.012500,0.072764,0.420783,1.031333
1.016667,0.103425,0.343091,1.024379
1.020833,0.131037,0.437564,1.021926
1.025000,0.116717,0.408564,1.004589
1.029167,0.087235,0.411793,1.017351
1.033333,0.065288,0.387230,1.016334
1.037500,0.141198,0.364496,1.016722
1.041667,0.052258,0.302736,1.005230
1.045833,0.098308,0.325248,1.007386
1.050000,0.150925,0.357554,1.012265
1.054167,0.102815,0.294345,1.013203
1.058333,0.145391,0.348207,1.010457
1.062500,0.156476,0.306287,1.021176
1.066667,0.156795,0.271530,1.015463
1.070833,0.147024,0.202429,1.018259
1.075000,0.060195,0.227223,0.986417
1.079167,0.118650,0.252056,1.007453
1.083333,0.071596,0.149062,0.992318
1.087500,0.103617,0.124879,0.991490
1.091667,0.037172,0.168289,0.996680
1.095833,0.007025,0.162400,0.977697
1.100000,-0.002635,0.167505,0.994694
1.104167,0.107308,0.056039,1.001512
1.108333,0.160890,0.060431,0.988962
1.112500,0.301359,0.102550,0.977080
1.116667,0.517464,0.083888,0.989766
1.120833,0.716901,0.087358,0.980007
1.125000,0.961032,-0.000689,0.963712
1.129167,1.133436,-0.029328,0.972114
1.133333,1.292169,0.029569,0.973468
1.137500,1.212938,0.010125,0.960361
1.141667,1.120030,-0.035145,0.971421
1.145833,0.837252,-0.097497,0.961016
1.150000,0.577391,-0.058750,0.954931
1.154167,0.373823,-0.069618,0.981580
1.158333,0.094303,-0.116651,0.971698
1.162500,0.027071,-0.097489,0.947933
1.166667,-0.046308,-0.110616,0.958254
1.170833,0.007386,-0.132749,0.965831
1.175000,0.082775,-0.092793,0.939722
1.179167,0.082879,-0.132865,0.951047
1.183333,0.228310,-0.141231,0.949757
1.187500,0.210226,-0.145100,0.936423
1.191667,0.190105,-0.122500,0.955020
1.195833,0.172231,-0.082695,0.932611
1.200000,0.158099,-0.100396,0.928205
1.204167,0.186093,-0.141466,0.917907
1.208333,0.136869,-0.105109,0.920807
1.212500,0.131343,-0.110189,0.940241
1.216667,0.187599,-0.026338,0.926377
1.220833,0.209973,-0.018862,0.921905
1.225000,0.219214,-0.081581,0.912161
1.229167,0.138911,-0.006277,0.929073
1.233333,0.166990,0.013491,0.917262
1.237500,0.192424,-0.076830,0.916111
1.241667,0.153455,-0.045758,0.906674
1.245833,0.222860,-0.054286,0.895175
1.250000,0.193868,0.043965,0.882098
1.254167,0.211358,-0.038258,0.895356
1.258333,0.189351,0.026271,0.875611
1.262500,0.158896,0.060968,0.885553
1.266667,0.214812,0.078416,0.893142
1.270833,0.234011,0.029009,0.868121
1.275000,0.234148,0.111608,0.867106
1.279167,0.203038,0.109863,0.877859
1.283333,0.171612,0.109971,0.854493
1.287500,0.191244,0.100132,0.874375
1.291667,0.263823,0.072344,0.854772
1.295833,0.171981,0.146223,0.865559
1.300000,0.259963,0.123828,0.848995
1.304167,0.192588,0.097584,0.839910
1.308333,0.180673,0.114986,0.853130
1.312500,0.204485,0.115193,0.837034
1.316667,0.267771,0.126846,0.832054
1.320833,0.262048,0.079265,0.849819
1.325000,0.203560,0.115908,0.816874
1.329167,0.264292,0.052218,0.818574
1.333333,0.206417,0.059985,0.828037
1.337500,0.229815,0.131727,0.835896
1.341667,0.193160,0.092042,0.817586
1.345833,0.193449,0.044842,0.795176
1.350000,0.220560,0.026966,0.821274
1.354167,0.233175,0.102646,0.787697
1.358333,0.159030,0.088228,0.797319
1.362500,0.151847,0.061035,0.790141
1.366667,0.246862,-0.026648,0.784312
1.370833,0.220548,0.035024,0.772732
1.375000,0.140026,0.032146,0.773462
1.379167,0.133749,-0.049415,0.792071
1.383333,0.118890,-0.105519,0.772584
1.387500,0.104752,-0.092234,0.772570
1.391667,0.104125,-0.078580,0.777694
1.395833,0.157311,-0.077621,0.772174
1.400000,0.145443,-0.107106,0.738192
1.404167,0.157760,-0.187241,0.741129
1.408333,0.123554,-0.105262,0.749050
1.412500,0.005536,-0.173502,0.747600
1.416667,0.007149,-0.157994,0.726123
1.420833,0.050014,-0.215805,0.724656
1.425000,0.071649,-0.209414,0.731723
1.429167,0.064425,-0.207414,0.712625
1.433333,0.042984,-0.257588,0.703030
1.437500,-0.019920,-0.319015,0.699711
1.441667,0.035166,-0.339356,0.709942
1.445833,-0.066158,-0.317807,0.702162
1.450000,-0.049712,-0.308727,0.704764
1.454167,0.007628,-0.301513,0.686633
1.458333,-0.005852,-0.413949,0.671022
1.462500,-0.071746,-0.422589,0.674491
1.466667,0.031806,-0.393566,0.663842
1.470833,0.029601,-0.352986,0.669843
1.475000,0.024732,-0.368705,0.661064
1.479167,-0.063264,-0.394830,0.657317
1.483333,-0.051571,-0.414328,0.660063
1.487500,0.042991,-0.346082,0.652971
1.491667,0.007132,-0.443239,0.628698
1.495833,-0.072733,-0.413929,0.641477
1.500000,-0.051408,-0.436582,0.624290
1.504167,-0.010032,-0.361230,0.636146
1.508333,0.021459,-0.448118,0.621437
1.512500,-0.025226,-0.391066,0.615780
1.516667,0.001038,-0.441607,0.598768
1.520833,0.013773,-0.362562,0.604999
1.525000,-0.001313,-0.408536,0.588554
1.529167,-0.038031,-0.407168,0.593303
1.533333,0.003915,-0.399379,0.595833
1.537500,0.049017,-0.295835,0.583411
1.541667,0.023930,-0.387024,0.586607
1.545833,0.022730,-0.296606,0.565473
1.550000,-0.027798,-0.337482,0.544941
1.554167,0.093420,-0.340829,0.549253
1.558333,0.020610,-0.279476,0.533788
1.562500,0.068055,-0.248421,0.532363
1.566667,0.025135,-0.264963,0.533517
1.570833,0.105343,-0.199099,0.533187
1.575000,0.049749,-0.205561,0.513226
1.579167,-0.012481,-0.277585,0.534846
1.583333,0.072566,-0.222409,0.524529
1.587500,0.017182,-0.162796,0.506133
1.591667,0.112206,-0.248348,0.494012
1.595833,-0.015129,-0.147204,0.491901
1.600000,0.035009,-0.129300,0.501039
1.604167,0.076895,-0.124869,0.480337
1.608333,0.061716,-0.115617,0.491810
1.612500,0.052389,-0.122508,0.454397
1.616667,0.035898,-0.100620,0.474767
1.620833,0.101435,-0.200036,0.448149
1.625000,0.038866,-0.189416,0.443906
1.629167,0.090490,-0.138732,0.440438
1.633333,0.016057,-0.151206,0.436003
1.637500,0.059285,-0.157210,0.434031
1.641667,0.065390,-0.181239,0.444270
1.645833,0.070935,-0.117413,0.421505
1.650000,0.102063,-0.207355,0.431986
1.654167,0.018079,-0.165520,0.405776
1.658333,0.047992,-0.228056,0.386182
1.662500,0.063148,-0.211861,0.402833
1.666667,0.082754,-0.148764,0.404965
1.670833,0.056332,-0.226455,0.384261
1.675000,0.062096,-0.230801,0.391796
1.679167,0.019099,-0.275345,0.374775
1.683333,0.005371,-0.296199,0.379066
1.687500,0.028665,-0.281045,0.373422
1.691667,0.073127,-0.307571,0.352342
1.695833,0.057396,-0.234947,0.359995
1.700000,0.014882,-0.249317,0.324466
1.704167,0.069679,-0.365795,0.320374
1.708333,0.041139,-0.284720,0.326186
1.712500,0.028774,-0.392890,0.322680
1.716667,0.087362,-0.355634,0.301994
1.720833,0.040474,-0.419356,0.302815
1.725000,0.050463,-0.409226,0.304122
1.729167,0.092732,-0.401768,0.305187
1.733333,0.094719,-0.386631,0.301625
1.737500,0.066967,-0.404194,0.269996
1.741667,0.072587,-0.509952,0.283685
1.745833,0.095220,-0.429965,0.266102
1.750000,0.121642,-0.507623,0.260649
1.754167,0.159492,-0.466688,0.239016
1.758333,0.126962,-0.547876,0.259416
1.762500,0.051665,-0.475152,0.228636
1.766667,0.063835,-0.546141,0.240079
1.770833,0.124465,-0.527668,0.238246
1.775000,0.123961,-0.595191,0.224375
1.779167,0.093107,-0.503666,0.208567
1.783333,0.119628,-0.530956,0.221241
1.787500,0.050190,-0.568740,0.204194
1.791667,0.027189,-0.575345,0.182479
1.795833,0.037260,-0.524407,0.196509
1.800000,0.066256,-0.544829,0.160748
1.804167,0.123658,-0.538327,0.162917
1.808333,0.086241,-0.587717,0.162920
1.812500,0.057524,-0.571466,0.142084
1.816667,0.084594,-0.537100,0.163770
1.820833,0.148899,-0.506848,0.133421
1.825000,0.061381,-0.583105,0.128528
1.829167,0.151632,-0.543440,0.146418
1.833333,0.153643,-0.551060,0.119183
1.837500,0.144948,-0.571751,0.113002
1.841667,0.153980,-0.535079,0.110701
1.845833,0.176859,-0.528840,0.086815
1.850000,0.103610,-0.531574,0.110495
1.854167,0.191585,-0.527664,0.080225
1.858333,0.107716,-0.504043,0.065318
1.862500,0.173458,-0.430758,0.090620
1.866667,0.161897,-0.426680,0.054662
1.870833,0.123966,-0.468077,0.078614
1.875000,0.109782,-0.417202,0.042789
1.879167,0.077622,-0.388391,0.053264
1.883333,0.073121,-0.400860,0.039006
1.887500,0.034906,-0.313363,0.021653
1.891667,0.141542,-0.327781,0.014970
1.895833,0.243488,-0.304403,0.036787
1.900000,0.513479,-0.306172,0.003470
1.904167,0.693579,-0.302687,-0.007045
1.908333,0.911265,-0.342354,-0.018056
1.912500,1.165028,-0.267731,-0.022667
1.916667,1.269144,-0.230385,-0.010519
1.920833,1.320662,-0.238030,-0.012748
1.925000,1.157897,-0.284396,-0.012032
1.929167,0.966179,-0.255601,-0.049662
1.933333,0.771627,-0.230586,-0.026606
1.937500,0.446697,-0.185582,-0.040207
1.941667,0.202342,-0.270261,-0.056433
1.945833,0.070292,-0.256255,-0.073893
1.950000,0.029762,-0.241171,-0.052073
1.954167,0.053518,-0.180137,-0.081604
1.958333,0.118494,-0.256887,-0.069950
1.962500,0.122001,-0.199270,-0.079576
1.966667,0.193916,-0.162299,-0.089321
1.970833,0.208617,-0.219820,-0.088042
1.975000,0.184833,-0.222848,-0.101499
1.979167,0.133123,-0.181777,-0.134349
1.983333,0.162081,-0.252811,-0.125546
1.987500,0.158121,-0.218359,-0.124946
1.991667,0.141379,-0.251281,-0.140048
1.995833,0.142136,-0.209386,-0.137673
2.000000,0.170817,-0.294054,-0.159933
2.004167,0.170745,-0.247007,-0.161992
2.008333,0.125981,-0.337844,-0.165589
2.012500,0.203256,-0.269771,-0.174214
2.016667,0.129914,-0.333823,-0.164848
2.020833,0.115908,-0.307616,-0.199034
2.025000,0.102610,-0.407090,-0.205198
2.029167,0.103004,-0.392138,-0.182205
2.033333,0.196960,-0.349334,-0.200418
2.037500,0.150115,-0.431420,-0.212952
2.041667,0.112090,-0.438254,-0.207000
2.045833,0.125098,-0.418899,-0.230260
2.050000,0.209200,-0.368599,-0.229101
2.054167,0.180190,-0.444034,-0.255535
2.058333,0.197590,-0.393604,-0.262319
2.062500,0.134848,-0.501153,-0.255228
2.066667,0.135756,-0.465412,-0.251922
2.070833,0.169739,-0.444194,-0.278906
2.075000,0.166033,-0.537309,-0.266444
2.079167,0.115950,-0.457264,-0.277549
2.083333,0.160353,-0.494752,-0.289352
2.087500,0.143968,-0.469114,-0.289931
2.091667,0.189716,-0.468059,-0.311481
2.095833,0.226862,-0.493182,-0.318660
2.100000,0.212166,-0.476227,-0.304125
2.104167,0.265469,-0.537466,-0.313812
2.108333,0.197398,-0.467072,-0.320328
2.112500,0.145555,-0.454375,-0.335069
2.116667,0.229374,-0.495076,-0.351233
2.120833,0.201462,-0.538686,-0.336779
2.125000,0.162985,-0.462266,-0.351249
2.129167,0.203707,-0.505750,-0.366036
2.133333,0.210120,-0.438093,-0.349125
2.137500,0.201734,-0.477261,-0.385473
2.141667,0.179811,-0.514003,-0.380588
2.145833,0.178816,-0.500176,-0.382242
2.150000,0.160200,-0.431233,-0.403912
2.154167,0.150778,-0.427081,-0.397288
2.158333,0.188198,-0.377384,-0.397729
2.162500,0.193151,-0.328522,-0.392726
2.166667,0.204362,-0.324430,-0.427041
2.170833,0.203254,-0.400970,-0.430571
2.175000,0.145942,-0.334633,-0.414004
2.179167,0.155739,-0.371965,-0.417427
2.183333,0.099606,-0.334730,-0.452744
2.187500,0.189887,-0.271941,-0.459479
2.191667,0.050930,-0.280973,-0.446480
2.195833,0.051096,-0.242120,-0.439804
2.200000,0.097412,-0.257006,-0.444282
2.204167,0.073465,-0.180750,-0.467906
2.208333,0.082407,-0.224388,-0.483565
2.212500,0.036098,-0.153051,-0.473574
2.216667,0.063586,-0.127962,-0.497219
2.220833,0.089528,-0.183546,-0.476688
2.225000,0.058901,-0.107529,-0.481660
2.229167,0.022434,-0.150331,-0.498968
2.233333,-0.001077,-0.065302,-0.526593
2.237500,-0.011109,-0.049792,-0.502483
2.241667,0.068176,-0.118516,-0.517297
2.245833,0.019185,-0.094618,-0.516733
2.250000,0.027800,-0.073923,-0.549777
2.254167,-0.011663,-0.041277,-0.545091
2.258333,-0.042040,-0.051783,-0.540667
2.262500,-0.009287,0.007061,-0.552867
2.266667,-0.070022,-0.014890,-0.545708
2.270833,0.049392,0.002140,-0.556202
2.275000,-0.062307,-0.011746,-0.569798
2.279167,-0.019704,-0.088508,-0.584728
2.283333,-0.065138,-0.015150,-0.562502
2.287500,-0.062321,-0.092843,-0.593101
2.291667,-0.016947,-0.063499,-0.602955
2.295833,-0.006176,-0.041467,-0.605837
2.300000,-0.032822,-0.036931,-0.612943
2.304167,0.000019,-0.092913,-0.620911
2.308333,-0.057875,-0.049361,-0.598233
2.312500,-0.055767,-0.099470,-0.623572
2.316667,0.010063,-0.073479,-0.627457
2.320833,-0.074747,-0.100881,-0.610495
2.325000,-0.022697,-0.047509,-0.638925
2.329167,-0.026940,-0.172947,-0.622401
2.333333,-0.053322,-0.139113,-0.633335
2.337500,-0.005455,-0.142992,-0.641828
2.341667,-0.006891,-0.124034,-0.662125
2.345833,-0.085443,-0.152365,-0.666120
2.350000,0.000417,-0.146882,-0.665359
2.354167,0.004982,-0.192742,-0.652652
2.358333,-0.110599,-0.132930,-0.677797
2.362500,-0.031047,-0.222457,-0.665132
2.366667,-0.010215,-0.268655,-0.681105
2.370833,-0.106243,-0.243395,-0.699135
2.375000,-0.036466,-0.184930,-0.691968
2.379167,-0.100890,-0.198506,-0.713902
2.383333,-0.031743,-0.222127,-0.711089
2.387500,-0.008386,-0.200525,-0.715049
2.391667,-0.125372,-0.234719,-0.702328
2.395833,-0.069826,-0.268490,-0.728723
2.400000,-0.037406,-0.277245,-0.708280
2.404167,-0.057681,-0.219669,-0.728316
2.408333,-0.117679,-0.232660,-0.715546
2.412500,-0.082384,-0.271467,-0.732664
2.416667,-0.046690,-0.303723,-0.750585
2.420833,-0.049839,-0.297489,-0.728552
2.425000,-0.062653,-0.245521,-0.735478
2.429167,-0.116792,-0.272858,-0.770010
2.433333,-0.068328,-0.258387,-0.762777
2.437500,-0.070871,-0.188640,-0.765017
2.441667,-0.086278,-0.200647,-0.775227
2.445833,-0.101256,-0.253941,-0.776603
2.450000,-0.049803,-0.219585,-0.767246
2.454167,-0.111892,-0.190522,-0.783133
2.458333,-0.057878,-0.176432,-0.798853
2.462500,-0.101322,-0.131530,-0.787740
2.466667,-0.114288,-0.134433,-0.785423
2.470833,-0.064924,-0.130012,-0.796895
2.475000,-0.066477,-0.139225,-0.800702
2.479167,-0.046302,-0.143483,-0.815813
2.483333,-0.037255,-0.032524,-0.814041
2.487500,0.015248,-0.034749,-0.808591
2.491667,-0.087260,-0.044863,-0.810603
2.495833,-0.095140,-0.013751,-0.801078
2.500000,-0.043625,0.016861,-0.837620
2.504167,-0.018518,0.007298,-0.824210
2.508333,0.034028,0.004114,-0.826395
2.512500,-0.022755,0.081733,-0.832630
2.516667,-0.007379,0.134864,-0.851009
2.520833,0.025742,0.088485,-0.831545
2.525000,-0.037536,0.145826,-0.845253
2.529167,-0.047411,0.145550,-0.832122
2.533333,-0.040473,0.171584,-0.838244
2.537500,0.062955,0.216096,-0.854171
2.541667,-0.009731,0.186929,-0.857126
2.545833,-0.043432,0.201982,-0.863725
2.550000,-0.034314,0.177555,-0.873605
2.554167,-0.000211,0.169314,-0.858347
2.558333,0.042169,0.169798,-0.857036
2.562500,0.025928,0.250527,-0.868988
2.566667,0.000588,0.188534,-0.889180
2.570833,0.016839,0.242834,-0.865458
2.575000,0.033231,0.242665,-0.883548
2.579167,-0.024384,0.208413,-0.895699
2.583333,0.018541,0.237063,-0.900873
2.587500,0.003692,0.322438,-0.900792
2.591667,0.018830,0.291190,-0.887292
2.595833,0.061820,0.260752,-0.882816
2.600000,0.052899,0.303707,-0.892916
2.604167,0.112221,0.217848,-0.886272
2.608333,0.089873,0.314093,-0.902346
2.612500,0.023676,0.234506,-0.905407
2.616667,0.114540,0.239002,-0.908310
2.620833,0.106349,0.280546,-0.926699
2.625000,0.071590,0.187737,-0.931969
2.629167,0.153550,0.239250,-0.934484
2.633333,0.138862,0.245505,-0.908599
2.637500,0.116017,0.213889,-0.907038
2.641667,0.128580,0.187556,-0.941956
2.645833,0.075664,0.207557,-0.937400
2.650000,-0.014140,0.186266,-0.941957
2.654167,0.019761,0.178338,-0.935208
2.658333,0.037866,0.098284,-0.935049
2.662500,0.070781,0.121265,-0.947128
2.666667,0.164516,0.150208,-0.955943
2.670833,0.445266,0.128641,-0.932265
2.675000,0.586996,0.097745,-0.951564
2.679167,0.808907,0.109704,-0.943948
2.683333,1.116324,0.097330,-0.949810
2.687500,1.254749,0.109140,-0.937234
2.691667,1.267866,0.083548,-0.952967
2.695833,1.220402,0.060602,-0.966937
2.700000,1.059571,0.090910,-0.951616
2.704167,0.835192,0.027790,-0.942055
2.708333,0.530528,0.041255,-0.970272
2.712500,0.302689,0.095866,-0.952714
2.716667,0.080019,0.037028,-0.949838
2.720833,-0.007427,0.076129,-0.976215
2.725000,-0.101474,0.031030,-0.980395
2.729167,0.012448,0.087060,-0.952878
2.733333,0.035078,0.062906,-0.976449
2.737500,0.108608,0.017503,-0.960476
2.741667,0.139835,0.087437,-0.952803
2.745833,0.111180,0.048686,-0.982017
2.750000,0.076616,0.107057,-0.955168
2.754167,0.121929,0.105796,-0.962574
2.758333,0.168770,0.139323,-0.978101
2.762500,0.073028,0.085995,-0.983113
2.766667,0.091092,0.071773,-0.984362
2.770833,0.112918,0.117763,-0.966634
2.775000,0.102332,0.075587,-0.982626
2.779167,0.123508,0.094378,-0.961897
2.783333,0.059126,0.154505,-0.991721
2.787500,0.133150,0.195824,-0.997120
2.791667,0.056681,0.154611,-0.981325
2.795833,0.141856,0.225574,-0.976009
2.800000,0.087488,0.232020,-0.972722
2.804167,0.090509,0.274250,-0.977611
2.808333,0.103134,0.307899,-0.970136
2.812500,0.097726,0.273324,-0.972095
2.816667,0.111195,0.313004,-0.986264
2.820833,0.113291,0.319707,-0.969716
2.825000,0.128906,0.345779,-0.983231
2.829167,0.094001,0.403044,-0.970522
2.833333,0.168644,0.365065,-0.992088
2.837500,0.113720,0.334431,-0.980360
2.841667,0.148943,0.447690,-0.974955
2.845833,0.166797,0.466706,-0.988280
2.850000,0.170271,0.489475,-0.988662
2.854167,0.135858,0.419990,-1.002410
2.858333,0.190606,0.425501,-1.002918
2.862500,0.149516,0.500598,-0.995479
2.866667,0.232490,0.501316,-0.989581
2.870833,0.225065,0.467221,-0.973391
2.875000,0.199382,0.439904,-0.983530
2.879167,0.166213,0.479109,-0.978542
2.883333,0.173856,0.481597,-1.001452
2.887500,0.198785,0.466515,-0.972994
2.891667,0.176608,0.491952,-0.971006
2.895833,0.243001,0.575118,-0.976190
2.900000,0.215621,0.509069,-0.999516
2.904167,0.234396,0.470469,-0.999935
2.908333,0.260163,0.549773,-0.965768
2.912500,0.261995,0.563786,-0.969854
2.916667,0.273936,0.461783,-0.968997
2.920833,0.201627,0.452411,-0.974218
2.925000,0.176839,0.485056,-0.994890
2.929167,0.186814,0.445476,-0.969820
2.933333,0.258015,0.471368,-0.966872
2.937500,0.263398,0.526700,-0.994443
2.941667,0.163163,0.447632,-0.961247
2.945833,0.158422,0.414117,-0.960858
2.950000,0.176945,0.393182,-0.980854
2.954167,0.231834,0.416120,-0.964948
2.958333,0.190043,0.369936,-0.957306
2.962500,0.090214,0.359589,-0.958321
2.966667,0.165092,0.378413,-0.953114
2.970833,0.138946,0.385021,-0.954053
2.975000,0.087421,0.322310,-0.969294
2.979167,0.131289,0.336447,-0.980812
2.983333,0.132145,0.315831,-0.950193
2.987500,0.113691,0.287551,-0.958863
2.991667,0.053601,0.246705,-0.945989
2.995833,0.023753,0.249216,-0.953400
3.000000,0.006833,0.251775,-0.954091
3.004167,0.104829,0.280307,-0.964947
3.008333,0.006456,0.293620,-0.966140
3.012500,0.073356,0.226345,-0.967413
3.016667,0.021852,0.218550,-0.966657
3.020833,-0.008551,0.207418,-0.932693
3.025000,-0.017247,0.284067,-0.935537
3.029167,-0.055062,0.180657,-0.952583
3.033333,-0.066340,0.193739,-0.956092
3.037500,-0.053884,0.260427,-0.935617
3.041667,0.009446,0.177171,-0.953361
3.045833,0.021481,0.220486,-0.920557
3.050000,0.011559,0.210975,-0.923285
3.054167,0.031153,0.282949,-0.925830
3.058333,-0.092388,0.247305,-0.920569
3.062500,-0.090299,0.277671,-0.940330
3.066667,-0.064627,0.193097,-0.937901
3.070833,0.005754,0.209475,-0.922275
3.075000,-0.096751,0.275818,-0.930817
3.079167,-0.130496,0.290818,-0.907405
3.083333,-0.088939,0.322521,-0.931507
3.087500,-0.086690,0.283471,-0.926731
3.091667,-0.033872,0.283258,-0.916709
3.095833,-0.080511,0.306078,-0.925134
3.100000,-0.049301,0.311631,-0.903800
3.104167,-0.059665,0.328324,-0.899235
3.108333,-0.073805,0.410852,-0.911771
3.112500,-0.069965,0.352015,-0.884160
3.116667,-0.130373,0.439356,-0.899722
3.120833,-0.091148,0.454787,-0.879087
3.125000,-0.190750,0.416158,-0.892317
3.129167,-0.189742,0.382347,-0.882646
3.133333,-0.201264,0.482172,-0.872302
3.137500,-0.186641,0.475985,-0.886583
3.141667,-0.133741,0.494050,-0.866573
3.145833,-0.151642,0.538172,-0.880787
3.150000,-0.207935,0.520541,-0.870548
3.154167,-0.173503,0.513091,-0.873980
3.158333,-0.133690,0.533395,-0.880835
3.162500,-0.173119,0.602067,-0.853803
3.166667,-0.167276,0.589539,-0.859673
3.170833,-0.123610,0.611485,-0.871474
3.175000,-0.166233,0.578565,-0.843920
3.179167,-0.254750,0.629943,-0.854863
3.183333,-0.164117,0.640797,-0.845952
3.187500,-0.194127,0.565609,-0.838985
3.191667,-0.217818,0.612287,-0.838834
3.195833,-0.181464,0.643755,-0.843512
3.200000,-0.224188,0.615289,-0.831695
3.204167,-0.140773,0.557152,-0.837592
3.208333,-0.257261,0.611017,-0.835803
3.212500,-0.229226,0.662420,-0.810245
3.216667,-0.174570,0.563488,-0.815073
3.220833,-0.216565,0.619124,-0.813384
3.225000,-0.159655,0.584805,-0.820970
3.229167,-0.220256,0.540012,-0.792377
3.233333,-0.147137,0.633214,-0.805437
3.237500,-0.147580,0.626215,-0.793827
3.241667,-0.189473,0.565163,-0.807702
3.245833,-0.159871,0.563144,-0.777267
3.250000,-0.134421,0.586438,-0.781877
3.254167,-0.175675,0.478578,-0.784435
3.258333,-0.130846,0.515970,-0.783256
3.262500,-0.206003,0.545633,-0.763028
3.266667,-0.086357,0.530535,-0.769494
3.270833,-0.126133,0.468048,-0.766533
3.275000,-0.145317,0.399455,-0.760907
3.279167,-0.086132,0.492575,-0.768899
3.283333,-0.028557,0.368609,-0.753669
3.287500,-0.005812,0.458238,-0.729269
3.291667,-0.052566,0.427212,-0.740746
3.295833,-0.085754,0.424548,-0.743785
3.300000,-0.012096,0.371466,-0.738855
3.304167,-0.017599,0.394920,-0.735796
3.308333,-0.064379,0.334550,-0.709987
3.312500,-0.007156,0.272353,-0.721980
3.316667,-0.010093,0.341856,-0.703569
3.320833,-0.013690,0.276176,-0.725355
3.325000,-0.081819,0.346077,-0.694275
3.329167,-0.004704,0.338556,-0.709115
3.333333,-0.011840,0.308856,-0.678986
3.337500,0.044655,0.269796,-0.676456
3.341667,-0.000837,0.285973,-0.673471
3.345833,-0.016008,0.264869,-0.679846
3.350000,0.050682,0.245958,-0.660015
3.354167,-0.004924,0.293151,-0.656465
3.358333,0.071052,0.203869,-0.670349
3.362500,0.044837,0.296348,-0.662742
3.366667,0.025065,0.281238,-0.645826
3.370833,0.006724,0.288825,-0.669439
3.375000,0.076262,0.319361,-0.640256
3.379167,0.028242,0.301778,-0.627376
3.383333,0.025122,0.328190,-0.638661
3.387500,0.040301,0.225120,-0.616591
3.391667,0.034676,0.275725,-0.640613
3.395833,0.122089,0.296545,-0.626663
3.400000,0.037850,0.299304,-0.622744
3.404167,0.150928,0.334296,-0.618546
3.408333,0.045816,0.314772,-0.613325
3.412500,0.029020,0.394271,-0.586108
3.416667,0.118871,0.414391,-0.598419
3.420833,0.086238,0.379647,-0.578946
3.425000,-0.001850,0.366614,-0.574242
3.429167,0.001238,0.448760,-0.573895
3.433333,-0.019230,0.434585,-0.575002
3.437500,-0.040010,0.401124,-0.578739
3.441667,0.026102,0.449299,-0.562731
3.445833,0.155382,0.440649,-0.554085
3.450000,0.348113,0.535131,-0.552716
3.454167,0.548149,0.544496,-0.532542
3.458333,0.689971,0.482539,-0.526328
3.462500,0.954028,0.551461,-0.519985
3.466667,1.169039,0.536952,-0.512706
3.470833,1.251725,0.568866,-0.513034
3.475000,1.166520,0.555480,-0.524293
3.479167,1.011800,0.630928,-0.517351
3.483333,0.724869,0.592327,-0.494879
3.487500,0.467382,0.605174,-0.513907
3.491667,0.244073,0.622221,-0.483688
3.495833,0.020656,0.575556,-0.505204
3.500000,-0.089834,0.653854,-0.466937
3.504167,-0.050674,0.674055,-0.464569
3.508333,-0.080989,0.660822,-0.483100
3.512500,-0.003683,0.670709,-0.474511
3.516667,-0.017623,0.654593,-0.460577
3.520833,0.069931,0.583369,-0.448398
3.525000,0.012207,0.613776,-0.452618
3.529167,0.006186,0.579262,-0.432143
3.533333,0.007697,0.605660,-0.438366
3.537500,0.097016,0.572433,-0.427663
3.541667,0.108901,0.646327,-0.424650
3.545833,0.081394,0.612348,-0.421098
3.550000,0.081789,0.576303,-0.424444
3.554167,0.054011,0.601837,-0.405854
3.558333,0.116775,0.638552,-0.400980
3.562500,0.093532,0.603339,-0.380986
3.566667,0.097613,0.526428,-0.389111
3.570833,0.023786,0.549912,-0.389301
3.575000,0.107349,0.510651,-0.363050
3.579167,0.026298,0.570061,-0.377409
3.583333,0.048204,0.563541,-0.369897
3.587500,0.150078,0.532333,-0.363439
3.591667,0.119221,0.446358,-0.358478
3.595833,0.032800,0.499486,-0.343997
3.600000,0.081708,0.477323,-0.341775
3.604167,0.130117,0.447040,-0.345707
3.608333,0.151532,0.440061,-0.329478
3.612500,0.082204,0.486263,-0.312878
3.616667,0.123912,0.368242,-0.319808
3.620833,0.158966,0.409823,-0.320208
3.625000,0.159877,0.446377,-0.291688
3.629167,0.150577,0.402901,-0.294815
3.633333,0.180811,0.384349,-0.298253
3.637500,0.201209,0.338991,-0.278362
3.641667,0.195824,0.383989,-0.290639
3.645833,0.259550,0.335941,-0.267586
3.650000,0.207245,0.349853,-0.246209
3.654167,0.215511,0.336965,-0.253825
3.658333,0.270663,0.319937,-0.254655
3.662500,0.230038,0.407157,-0.259319
3.666667,0.236807,0.352551,-0.235303
3.670833,0.324303,0.307564,-0.236561
3.675000,0.337714,0.355598,-0.218165
3.679167,0.269319,0.398839,-0.218421
3.683333,0.354328,0.422478,-0.212803
3.687500,0.309227,0.331675,-0.208015
3.691667,0.319897,0.430075,-0.214457
3.695833,0.260921,0.428155,-0.177887
3.700000,0.328300,0.359604,-0.183410
3.704167,0.278612,0.387093,-0.179379
3.708333,0.339150,0.407672,-0.185273
3.712500,0.255469,0.484007,-0.148840
3.716667,0.341969,0.433950,-0.176073
3.720833,0.324146,0.473460,-0.137084
3.725000,0.243281,0.457561,-0.154545
3.729167,0.279701,0.487458,-0.135357
3.733333,0.221991,0.489138,-0.121595
3.737500,0.299685,0.561765,-0.116067
3.741667,0.286070,0.612362,-0.134883
3.745833,0.272413,0.547212,-0.104915
3.750000,0.187902,0.671019,-0.121605
3.754167,0.284204,0.665118,-0.098073
3.758333,0.189981,0.691386,-0.077753
3.762500,0.193743,0.705646,-0.084206
3.766667,0.152579,0.640375,-0.073726
3.770833,0.232264,0.766564,-0.080118
3.775000,0.187643,0.758483,-0.051260
3.779167,0.087257,0.713526,-0.047072
3.783333,0.159655,0.823563,-0.063240
3.787500,0.091325,0.757449,-0.060739
3.791667,0.131034,0.833129,-0.030240
3.795833,0.131381,0.858740,-0.048492
3.800000,0.071546,0.882389,-0.023050
3.804167,0.068659,0.872691,-0.037257
3.808333,0.100557,0.902238,-0.026769
3.812500,0.060110,0.873830,-0.005123
3.816667,0.032251,0.837421,-0.017857
3.820833,-0.029188,0.924950,-0.011437
3.825000,-0.031299,0.905078,0.024960
3.829167,0.038734,0.937183,0.031328
3.833333,-0.038467,0.944761,0.006163
3.837500,-0.068703,0.954231,0.014959
3.841667,0.008729,0.919022,0.023878
3.845833,-0.052640,0.889674,0.039635
3.850000,-0.102238,0.944325,0.059539
3.854167,0.003322,0.965933,0.070082
3.858333,-0.055059,0.962537,0.064114
3.862500,-0.074666,0.897077,0.075325
3.866667,-0.121019,0.888399,0.083302
3.870833,-0.125026,0.892902,0.081959
3.875000,-0.089034,0.890335,0.085050
3.879167,-0.149224,0.853977,0.099693
3.883333,-0.172023,0.849484,0.102185
3.887500,-0.082405,0.837417,0.096450
3.891667,-0.087127,0.889450,0.114740
3.895833,-0.220929,0.862723,0.122738
3.900000,-0.151658,0.903386,0.109944
3.904167,-0.200793,0.861515,0.145252
3.908333,-0.135610,0.798861,0.124606
3.912500,-0.169614,0.811953,0.143305
3.916667,-0.134539,0.847492,0.164784
3.920833,-0.124847,0.823098,0.146734
3.925000,-0.171906,0.814804,0.165603
3.929167,-0.202103,0.735586,0.185424
3.933333,-0.190141,0.762350,0.183891
3.937500,-0.226821,0.798451,0.184526
3.941667,-0.217987,0.784466,0.195528
3.945833,-0.272644,0.709989,0.196107
3.950000,-0.261573,0.794540,0.191659
3.954167,-0.201358,0.771136,0.196939
3.958333,-0.241634,0.789193,0.230083
3.962500,-0.198538,0.760062,0.231547
3.966667,-0.243415,0.787082,0.219543
3.970833,-0.207164,0.752565,0.218064
3.975000,-0.200418,0.797192,0.234896
3.979167,-0.240312,0.754609,0.246411
3.983333,-0.284686,0.800906,0.243684
3.987500,-0.208999,0.767476,0.250382
3.991667,-0.218052,0.813463,0.264856
3.995833,-0.182587,0.824802,0.264008
4.000000,-0.236082,0.745981,0.264028
4.004167,-0.197580,0.788407,0.277969
4.008333,-0.268927,0.872350,0.292067
4.012500,-0.225152,0.844240,0.291828
4.016667,-0.150734,0.835720,0.312389
4.020833,-0.179192,0.873523,0.323844
4.025000,-0.157857,0.913586,0.325007
4.029167,-0.149575,0.920497,0.314001
4.033333,-0.164027,0.941723,0.325114
4.037500,-0.160277,0.997414,0.333829
4.041667,-0.087513,0.954797,0.351251
4.045833,-0.117629,0.951432,0.332709
4.050000,-0.153075,0.952612,0.357488
4.054167,-0.049392,0.993859,0.357906
4.058333,-0.038609,1.030093,0.366310
4.062500,-0.094256,1.008310,0.381638
4.066667,-0.081865,1.034155,0.359084
4.070833,-0.044056,1.077933,0.361157
4.075000,0.020608,1.158711,0.368965
4.079167,0.021994,1.109366,0.399572
4.083333,-0.010465,1.197816,0.393118
4.087500,0.028032,1.229986,0.414767
4.091667,0.039514,1.247589,0.401536
4.095833,-0.048028,1.224559,0.394766
4.100000,-0.038326,1.179781,0.433027
4.104167,0.025476,1.269017,0.434749
4.108333,0.071949,1.269536,0.439671
4.112500,0.038695,1.295959,0.443754
4.116667,0.039828,1.288031,0.450702
4.120833,0.016117,1.286843,0.433941
4.125000,-0.008323,1.274440,0.457443
4.129167,-0.009746,1.341686,0.448547
4.133333,0.077279,1.351128,0.467094
4.137500,-0.012258,1.289724,0.456497
4.141667,0.011635,1.277591,0.486016
4.145833,-0.022454,1.320679,0.485901
4.150000,0.009061,1.265817,0.481303
4.154167,0.069195,1.274545,0.485006
4.158333,0.050169,1.274849,0.490739
4.162500,0.098262,1.350551,0.499292
4.166667,0.050839,1.359375,0.508349
4.170833,0.035288,1.260665,0.520972
4.175000,0.029072,1.310897,0.511244
4.179167,0.031921,1.284443,0.530171
4.183333,0.051581,1.267592,0.522608
4.187500,0.023545,1.239975,0.545644
4.191667,0.128999,1.206068,0.549653
4.195833,0.109224,1.196893,0.546785
4.200000,0.042200,1.268972,0.559635
4.204167,0.016681,1.170081,0.537159
4.208333,0.090970,1.160516,0.538651
4.212500,-0.018380,1.241542,0.576068
4.216667,0.023179,1.208664,0.574659
4.220833,-0.022490,1.165893,0.578822
4.225000,-0.094345,1.116372,0.583386
4.229167,0.032442,1.126810,0.574441
4.233333,0.103030,1.087527,0.572361
4.237500,0.286202,1.091051,0.575966
4.241667,0.422495,1.111522,0.602670
4.245833,0.661856,1.088073,0.607697
4.250000,0.940184,1.094576,0.603040
4.254167,1.066015,1.002696,0.612298
4.258333,1.211917,1.084925,0.613893
4.262500,1.080716,0.980445,0.617573
4.266667,0.961654,1.012768,0.610690
4.270833,0.752308,1.054027,0.632756
4.275000,0.403556,1.028009,0.644483
4.279167,0.151409,0.940510,0.638749
4.283333,-0.007499,0.933460,0.629259
4.287500,-0.126789,0.932347,0.625965
4.291667,-0.197420,0.994279,0.661057
4.295833,-0.146397,1.007056,0.637548
4.300000,-0.057263,0.925587,0.657649
4.304167,-0.038517,0.985184,0.657786
4.308333,0.020905,1.005897,0.668844
4.312500,0.078400,0.924772,0.672408
4.316667,0.085911,0.915707,0.664640
4.320833,0.037672,0.963933,0.690179
4.325000,0.068702,0.935510,0.683539
4.329167,0.077435,1.008179,0.698492
4.333333,0.104170,1.042100,0.685591
4.337500,0.091862,0.971880,0.683986
4.341667,0.064506,1.053716,0.679506
4.345833,0.062141,1.030155,0.688561
4.350000,0.043448,0.974490,0.691555
4.354167,0.116446,0.998339,0.693361
4.358333,0.040853,0.973626,0.707864
4.362500,0.103548,1.019174,0.700341
4.366667,0.089067,0.983891,0.699895
4.370833,0.108066,1.011978,0.731642
4.375000,0.106841,0.992200,0.738980
4.379167,0.111503,1.061455,0.736352
4.383333,0.141624,1.062035,0.711835
4.387500,0.219630,1.066735,0.734605
4.391667,0.181992,1.042074,0.722652
4.395833,0.178411,1.040652,0.737176
4.400000,0.201546,1.090339,0.752834
4.404167,0.179638,1.122879,0.733944
4.408333,0.236522,1.122814,0.732796
4.412500,0.205503,1.038580,0.766814
4.416667,0.219837,1.115130,0.752549
4.420833,0.310747,1.019252,0.771460
4.425000,0.310114,1.086289,0.766915
4.429167,0.260022,1.037377,0.765431
4.433333,0.338395,1.101485,0.768446
4.437500,0.304369,1.016282,0.753084
4.441667,0.370783,1.083801,0.782183
4.445833,0.309351,1.019934,0.786726
4.450000,0.437916,0.995088,0.776751
4.454167,0.424217,0.967494,0.786854
4.458333,0.469418,1.035883,0.780322
4.462500,0.466057,0.941982,0.788309
4.466667,0.426046,0.920494,0.771946
4.470833,0.477620,0.968559,0.796701
4.475000,0.409399,0.918890,0.783014
4.479167,0.403013,0.828652,0.804610
4.483333,0.401167,0.854760,0.803100
4.487500,0.466495,0.814384,0.783713
4.491667,0.454614,0.822063,0.797787
4.495833,0.423766,0.816020,0.803670
4.500000,0.412220,0.691248,0.798485
4.504167,0.415454,0.764602,0.804339
4.508333,0.421196,0.715685,0.803762
4.512500,0.417103,0.666889,0.799135
4.516667,0.446853,0.619077,0.803816
4.520833,0.402917,0.616699,0.831755
4.525000,0.336416,0.505940,0.826611
4.529167,0.390566,0.457534,0.839716
4.533333,0.293306,0.504068,0.840576
4.537500,0.315380,0.407187,0.821903
4.541667,0.316696,0.373491,0.819201
4.545833,0.265526,0.333593,0.846302
4.550000,0.229212,0.292420,0.820325
4.554167,0.309623,0.333289,0.838946
4.558333,0.289702,0.258187,0.840512
4.562500,0.204087,0.236775,0.842295
4.566667,0.244199,0.183568,0.843613
4.570833,0.164584,0.221788,0.823374
4.575000,0.198998,0.143460,0.842911
4.579167,0.127551,0.097041,0.851277
4.583333,0.099690,0.052955,0.847749
4.587500,0.181032,0.042404,0.831900
4.591667,0.093654,0.044506,0.860411
4.595833,0.054937,-0.014764,0.833618
4.600000,0.087613,0.017550,0.833288
4.604167,0.101485,-0.020039,0.842358
4.608333,0.026507,-0.112124,0.836696
4.612500,-0.012683,-0.067450,0.846419
4.616667,0.082685,-0.088454,0.851879
4.620833,0.056380,-0.203583,0.866240
4.625000,-0.005375,-0.175935,0.860290
4.629167,-0.034512,-0.191717,0.843848
4.633333,0.000927,-0.205701,0.866047
4.637500,0.003262,-0.259287,0.860077
4.641667,-0.011764,-0.235895,0.845804
4.645833,-0.109257,-0.191712,0.847905
4.650000,-0.093536,-0.190775,0.843364
4.654167,-0.070303,-0.222728,0.861949
4.658333,-0.041060,-0.319138,0.865557
4.662500,-0.145176,-0.300036,0.875171
4.666667,-0.055036,-0.280074,0.844352
4.670833,-0.101124,-0.314790,0.862242
4.675000,-0.126414,-0.263640,0.867291
4.679167,-0.091294,-0.248147,0.856273
4.683333,-0.189292,-0.355169,0.873485
4.687500,-0.122962,-0.311658,0.872185
4.691667,-0.140649,-0.283982,0.876705
4.695833,-0.107801,-0.295579,0.847067
4.700000,-0.118470,-0.352345,0.859453
4.704167,-0.149184,-0.337958,0.872259
4.708333,-0.115071,-0.295709,0.873547
4.712500,-0.204438,-0.341792,0.863585
4.716667,-0.152231,-0.344549,0.875597
4.720833,-0.124192,-0.346774,0.863840
4.725000,-0.124550,-0.363845,0.858651
4.729167,-0.147704,-0.363858,0.857710
4.733333,-0.219645,-0.392662,0.851038
4.737500,-0.171599,-0.315411,0.863458
4.741667,-0.171949,-0.380942,0.876558
4.745833,-0.130833,-0.321010,0.851089
4.750000,-0.173013,-0.346763,0.876309
4.754167,-0.198581,-0.374140,0.871492
4.758333,-0.113737,-0.443081,0.861401
4.762500,-0.208584,-0.370142,0.866070
4.766667,-0.190166,-0.389349,0.846652
4.770833,-0.089774,-0.409909,0.863830
4.775000,-0.182821,-0.429205,0.854832
4.779167,-0.175509,-0.405549,0.867785
4.783333,-0.116505,-0.483162,0.854203
4.787500,-0.091758,-0.474213,0.837568
4.791667,-0.150481,-0.440770,0.864816
4.795833,-0.106742,-0.550149,0.865253
4.800000,-0.176957,-0.503310,0.837143
4.804167,-0.097168,-0.486360,0.861254
4.808333,-0.160662,-0.532932,0.841157
4.812500,-0.150063,-0.612691,0.834155
4.816667,-0.089695,-0.547492,0.850774
4.820833,-0.030820,-0.593047,0.856544
4.825000,-0.041711,-0.561254,0.849116
4.829167,-0.139694,-0.625565,0.829941
4.833333,-0.066360,-0.691909,0.843865
4.837500,-0.004863,-0.669457,0.846302
4.841667,-0.084246,-0.703826,0.850038
4.845833,-0.025391,-0.704724,0.850656
4.850000,-0.018189,-0.718033,0.844952
4.854167,0.030314,-0.684126,0.848182
4.858333,0.057537,-0.725380,0.816334
4.862500,-0.040349,-0.779425,0.839459
4.866667,0.071214,-0.778486,0.820224
4.870833,0.098992,-0.714273,0.820289
4.875000,0.101733,-0.743514,0.834832
4.879167,-0.001050,-0.762239,0.833229
4.883333,0.058292,-0.825928,0.818143
4.887500,0.117201,-0.806201,0.809472
4.891667,0.127771,-0.814808,0.806493
4.895833,0.060768,-0.829140,0.829031
4.900000,0.098670,-0.777150,0.813671
4.904167,0.069639,-0.742606,0.826650
4.908333,0.140066,-0.785971,0.818680
4.912500,0.111566,-0.786638,0.791671
4.916667,0.112093,-0.761680,0.797172
4.920833,0.113995,-0.737116,0.818082
4.925000,0.049853,-0.728583,0.816610
4.929167,0.100697,-0.767796,0.812709
4.933333,0.090065,-0.723979,0.795566
4.937500,0.040024,-0.764568,0.805884
4.941667,0.070902,-0.750265,0.796303
4.945833,0.058222,-0.673661,0.787609
4.950000,0.087032,-0.697122,0.791850
4.954167,0.066593,-0.625356,0.794171
4.958333,0.111700,-0.625406,0.777194
4.962500,0.054602,-0.562292,0.764331
4.966667,0.035785,-0.541281,0.768482
4.970833,0.087942,-0.553105,0.772373
4.975000,0.046735,-0.587295,0.753196
4.979167,0.066569,-0.516748,0.753048
4.983333,0.085402,-0.435741,0.765208
4.987500,0.038440,-0.466013,0.747694
4.991667,0.015313,-0.476143,0.760770
4.995833,0.035843,-0.359450,0.764161
5.000000,-0.020852,-0.349733,0.735143
5.004167,-0.007857,-0.378879,0.756402
5.008333,0.020526,-0.284660,0.738500
5.012500,0.048197,-0.327792,0.747150
5.016667,0.044120,-0.311896,0.739068
5.020833,-0.022453,-0.290786,0.717314
5.025000,0.023579,-0.190352,0.720959
5.029167,-0.030327,-0.157447,0.726997
5.033333,-0.024108,-0.210008,0.708115
5.037500,-0.097500,-0.105167,0.721385
5.041667,-0.130027,-0.172857,0.718103
5.045833,-0.177366,-0.102637,0.730033
5.050000,-0.128605,-0.097599,0.692716
5.054167,0.019193,-0.093754,0.690092
5.058333,0.216699,-0.029877,0.708697
5.062500,0.373599,-0.031863,0.709719
5.066667,0.664677,-0.040576,0.689607
5.070833,0.841348,0.058539,0.684997
5.075000,1.009392,-0.018627,0.690844
5.079167,1.177427,-0.007291,0.673214
5.083333,1.086613,0.102379,0.688135
5.087500,0.959586,0.073146,0.658775
5.091667,0.735450,0.110969,0.669776
5.095833,0.422341,0.114491,0.653988
5.100000,0.171022,0.081989,0.673316
5.104167,-0.005978,0.041828,0.642271
5.108333,-0.142856,0.075060,0.643533
5.112500,-0.120192,0.059269,0.661086
5.116667,-0.151083,0.085214,0.645113
5.120833,-0.040823,0.145673,0.646411
5.125000,-0.004739,0.147997,0.646080
5.129167,0.074132,0.070543,0.625108
5.133333,0.105517,0.069085,0.631450
5.137500,0.110775,0.095800,0.618059
5.141667,0.125321,0.029903,0.619517
5.145833,0.100099,0.097344,0.621239
5.150000,0.150451,0.045488,0.596769
5.154167,0.153788,0.069127,0.617164
5.158333,0.149338,0.028482,0.587431
5.162500,0.169254,0.011455,0.583256
5.166667,0.182557,0.060802,0.598359
5.170833,0.199667,0.008737,0.596178
5.175000,0.142564,-0.012518,0.597122
5.179167,0.248124,0.065706,0.578675
5.183333,0.235857,0.092237,0.564205
5.187500,0.279714,0.035285,0.565388
5.191667,0.220539,0.060377,0.557453
5.195833,0.206870,0.074409,0.553246
5.200000,0.256152,0.047830,0.568350
5.204167,0.294304,0.059229,0.560781
5.208333,0.362082,-0.029927,0.532950
5.212500,0.345619,0.042755,0.528768
5.216667,0.376098,-0.032708,0.531473
5.220833,0.351732,0.040604,0.528707
5.225000,0.326203,0.012777,0.525572
5.229167,0.413010,0.084775,0.505783
5.233333,0.387529,0.080850,0.505540
5.237500,0.443917,-0.020549,0.512070
5.241667,0.479351,0.082936,0.498416
5.245833,0.475395,0.004931,0.489046
5.250000,0.465600,0.092306,0.482594
5.254167,0.460222,0.027856,0.491195
5.258333,0.436234,0.089382,0.468697
5.262500,0.531461,0.067016,0.471019
5.266667,0.449874,0.157711,0.482774
5.270833,0.497476,0.128422,0.461322
5.275000,0.505682,0.136425,0.448821
5.279167,0.548859,0.218111,0.440572
5.283333,0.514327,0.196555,0.467151
5.287500,0.597629,0.206390,0.462801
5.291667,0.539779,0.184664,0.450448
5.295833,0.463390,0.180722,0.440509
5.300000,0.534351,0.216594,0.413869
5.304167,0.518853,0.266881,0.427180
5.308333,0.495826,0.324080,0.421837
5.312500,0.469482,0.253591,0.415620
5.316667,0.554532,0.282353,0.392883
5.320833,0.479008,0.310075,0.405810
5.325000,0.421344,0.313335,0.380578
5.329167,0.497292,0.422637,0.403564
5.333333,0.445594,0.446122,0.382073
5.337500,0.494641,0.414537,0.382535
5.341667,0.354301,0.366402,0.373796
5.345833,0.325373,0.473891,0.358837
5.350000,0.350255,0.408343,0.356648
5.354167,0.407610,0.480616,0.356589
5.358333,0.329600,0.458933,0.350860
5.362500,0.287948,0.523471,0.358193
5.366667,0.330394,0.521724,0.335603
5.370833,0.278594,0.536777,0.348615
5.375000,0.256387,0.486888,0.342696
5.379167,0.244207,0.510614,0.321097
5.383333,0.257548,0.575249,0.314778
5.387500,0.177088,0.538033,0.296851
5.391667,0.148173,0.486182,0.313568
5.395833,0.169572,0.522714,0.308331
5.400000,0.107242,0.564284,0.277388
5.404167,0.118926,0.480098,0.297039
5.408333,0.118179,0.531082,0.275097
5.412500,0.003700,0.520856,0.258439
5.416667,0.062223,0.567350,0.248762
5.420833,0.092219,0.493387,0.244386
5.425000,-0.015241,0.509690,0.262503
5.429167,-0.047141,0.491643,0.232195
5.433333,-0.043852,0.544474,0.252120
5.437500,0.040486,0.542189,0.250238
5.441667,0.027192,0.526651,0.216779
5.445833,-0.080629,0.493844,0.213219
5.450000,0.015005,0.498007,0.220719
5.454167,-0.007379,0.390382,0.225273
5.458333,-0.097296,0.439459,0.189241
5.462500,-0.051518,0.357128,0.213163
5.466667,-0.104634,0.414027,0.175428
5.470833,-0.050604,0.350410,0.199278
5.475000,-0.060378,0.318117,0.174130
5.479167,-0.114121,0.378080,0.178706
5.483333,-0.137169,0.355529,0.175297
5.487500,-0.117820,0.297792,0.149226
5.491667,-0.051498,0.302615,0.157901
5.495833,-0.149157,0.254756,0.129969
5.500000,-0.107874,0.282404,0.153814
5.504167,-0.097590,0.328837,0.133362
5.508333,-0.108478,0.227382,0.115354
5.512500,-0.084792,0.287784,0.116829
5.516667,-0.077807,0.295834,0.129203
5.520833,-0.107023,0.293065,0.095341
5.525000,-0.022126,0.294631,0.106553
5.529167,-0.095053,0.253087,0.101867
5.533333,-0.081250,0.211926,0.087750
5.537500,-0.077010,0.196336,0.068539
5.541667,-0.092126,0.205033,0.087776
5.545833,-0.060360,0.202168,0.070884
5.550000,-0.065729,0.172796,0.076157
5.554167,-0.047688,0.194643,0.071292
5.558333,-0.016747,0.231239,0.033292
5.562500,-0.026198,0.239565,0.054216
5.566667,-0.004554,0.243738,0.046452
5.570833,-0.054733,0.242241,0.021792
5.575000,-0.009859,0.313234,0.009356
5.579167,-0.021211,0.211631,0.023092
5.583333,0.009134,0.213115,-0.003853
5.587500,0.027584,0.263440,0.020952
5.591667,-0.038671,0.271089,0.006476
5.595833,0.017785,0.310600,-0.022957
5.600000,-0.028287,0.373317,-0.012400
5.604167,-0.049065,0.358893,-0.015302
5.608333,0.029920,0.355956,-0.021801
5.612500,0.035599,0.370109,-0.050653
5.616667,-0.015302,0.342316,-0.048424
5.620833,0.061118,0.384214,-0.053993
5.625000,0.028900,0.390235,-0.069892
5.629167,0.047856,0.366399,-0.049963
5.633333,-0.013486,0.439939,-0.083394
5.637500,0.063534,0.475876,-0.086616
5.641667,0.036742,0.515083,-0.077955
5.645833,0.017347,0.464229,-0.072357
5.650000,-0.002018,0.435195,-0.085048
5.654167,-0.001114,0.479531,-0.087846
5.658333,0.081811,0.558098,-0.114821
5.662500,-0.037409,0.467415,-0.102023
5.666667,0.046243,0.592855,-0.107538
5.670833,0.001368,0.543587,-0.129409
5.675000,0.010866,0.493763,-0.142804
5.679167,0.047178,0.568841,-0.135809
5.683333,0.038318,0.589640,-0.153182
5.687500,0.035900,0.539402,-0.162399
5.691667,0.048143,0.560393,-0.167236
5.695833,0.102975,0.575862,-0.174837
5.700000,0.083540,0.632194,-0.175316
5.704167,0.052240,0.540190,-0.184604
5.708333,0.100088,0.586452,-0.199841
5.712500,0.058529,0.550899,-0.183699
5.716667,0.105527,0.534522,-0.204557
5.720833,0.129618,0.550601,-0.195842
5.725000,0.108423,0.568493,-0.205125
5.729167,-0.014522,0.536264,-0.218110
5.733333,0.036477,0.537477,-0.236727
5.737500,0.001856,0.482258,-0.227852
5.741667,-0.024446,0.509711,-0.250145
5.745833,-0.031272,0.442038,-0.234730
5.750000,0.056431,0.470747,-0.244092
5.754167,0.022460,0.436507,-0.272581
5.758333,0.017546,0.408928,-0.261434
5.762500,-0.015838,0.425914,-0.285166
5.766667,-0.061043,0.458369,-0.272644
5.770833,0.039251,0.373356,-0.296965
5.775000,-0.027381,0.421461,-0.283265
5.779167,-0.061142,0.387353,-0.298844
5.783333,-0.051793,0.349030,-0.306197
5.787500,-0.053772,0.358787,-0.301186
5.791667,-0.025837,0.371017,-0.309363
5.795833,-0.062816,0.352210,-0.331127
5.800000,-0.076740,0.300586,-0.341179
5.804167,-0.036531,0.288570,-0.330258
5.808333,-0.029616,0.276354,-0.352694
5.812500,-0.028271,0.274607,-0.348679
5.816667,-0.073535,0.243247,-0.366463
5.820833,-0.074208,0.268644,-0.369420
5.825000,-0.038607,0.246744,-0.374440
5.829167,-0.018575,0.150235,-0.373717
5.833333,-0.072228,0.208712,-0.373584
5.837500,-0.062715,0.215584,-0.380941
5.841667,0.014806,0.186749,-0.374627
5.845833,-0.070906,0.226027,-0.407131
5.850000,-0.076313,0.209779,-0.416440
5.854167,-0.051006,0.147778,-0.412250
5.858333,-0.162604,0.204631,-0.409912
5.862500,-0.214445,0.125855,-0.434383
5.866667,-0.172285,0.106701,-0.411065
5.870833,-0.059175,0.145014,-0.432568
5.875000,0.113822,0.161472,-0.434176
5.879167,0.272710,0.185666,-0.453932
5.883333,0.453464,0.101794,-0.464647
5.887500,0.803634,0.201105,-0.440602
5.891667,0.990768,0.229805,-0.443892
5.895833,1.182460,0.159139,-0.468007
5.900000,1.185037,0.138012,-0.466453
5.904167,1.118238,0.184047,-0.481190
5.908333,0.871052,0.217092,-0.472060
5.912500,0.679873,0.154886,-0.505711
5.916667,0.413930,0.266020,-0.481051
5.920833,0.129439,0.267621,-0.501447
5.925000,0.032631,0.266257,-0.506925
5.929167,-0.009338,0.278922,-0.527787
5.933333,-0.054330,0.213740,-0.525556
5.937500,-0.002373,0.321204,-0.509822
5.941667,0.116497,0.316908,-0.529452
5.945833,0.164820,0.331863,-0.540837
5.950000,0.143291,0.330584,-0.531786
5.954167,0.158951,0.276341,-0.539912
5.958333,0.210895,0.351546,-0.539061
5.962500,0.160927,0.354666,-0.554857
5.966667,0.197845,0.307709,-0.548244
5.970833,0.190091,0.322141,-0.566166
5.975000,0.227173,0.395838,-0.570470
5.979167,0.220154,0.386985,-0.576899
5.983333,0.308706,0.409579,-0.600436
5.987500,0.249097,0.351898,-0.573366
5.991667,0.243748,0.349050,-0.594339
5.995833,0.284860,0.422374,-0.611373
6.000000,0.320916,0.356138,-0.617116
6.004167,0.370355,0.373838,-0.600274
6.008333,0.358265,0.348986,-0.609048
6.012500,0.262835,0.347463,-0.614651
6.016667,0.290202,0.457680,-0.618162
6.020833,0.367639,0.423032,-0.640846
6.025000,0.323332,0.424228,-0.625521
6.029167,0.315532,0.397474,-0.640847
6.033333,0.381388,0.373836,-0.648749
6.037500,0.345399,0.425941,-0.667714
6.041667,0.443532,0.334289,-0.657691
6.045833,0.366209,0.301759,-0.676062
6.050000,0.442344,0.312347,-0.652076
6.054167,0.432823,0.331878,-0.656619
6.058333,0.373158,0.303993,-0.684258
6.062500,0.473477,0.344004,-0.687352
6.066667,0.428482,0.263292,-0.677361
6.070833,0.481994,0.267342,-0.701645
6.075000,0.494765,0.251780,-0.704350
6.079167,0.404644,0.195982,-0.684627
6.083333,0.453467,0.173618,-0.692660
6.087500,0.508070,0.216647,-0.712647
6.091667,0.481828,0.107576,-0.704671
6.095833,0.460820,0.095302,-0.701445
6.100000,0.441319,0.079914,-0.717129
6.104167,0.480458,0.127910,-0.717078
6.108333,0.436313,0.133575,-0.721790
6.112500,0.503710,0.011271,-0.744544
6.116667,0.467219,0.107043,-0.722641
6.120833,0.452996,0.033150,-0.733847
6.125000,0.454169,0.059141,-0.757087
6.129167,0.420968,0.029383,-0.758724
6.133333,0.403696,0.018757,-0.750320
6.137500,0.417708,-0.080880,-0.749374
6.141667,0.330915,-0.014781,-0.777287
6.145833,0.331997,-0.012480,-0.781170
6.150000,0.317903,-0.009027,-0.769609
6.154167,0.373615,-0.064195,-0.794113
6.158333,0.356842,-0.070110,-0.769401
6.162500,0.350714,-0.142230,-0.774783
6.166667,0.272762,-0.127519,-0.786724
6.170833,0.226277,-0.137543,-0.794326
6.175000,0.237040,-0.087960,-0.806009
6.179167,0.257767,-0.156558,-0.807791
6.183333,0.183588,-0.105835,-0.819284
6.187500,0.266193,-0.107017,-0.821273
6.191667,0.207427,-0.162843,-0.825771
6.195833,0.180787,-0.070734,-0.805680
6.200000,0.089460,-0.068121,-0.823012
6.204167,0.094830,-0.101896,-0.813617
6.208333,0.084171,-0.134338,-0.813171
6.212500,0.045294,-0.132127,-0.845688
6.216667,0.136392,-0.060772,-0.839698
6.220833,0.130037,-0.034175,-0.828904
6.225000,0.101231,-0.038080,-0.831613
6.229167,0.047977,-0.104901,-0.858605
6.233333,0.001040,-0.064801,-0.836744
6.237500,0.073364,-0.090842,-0.864014
6.241667,0.037633,0.027275,-0.848944
6.245833,0.042976,-0.031254,-0.845183
6.250000,0.061670,-0.019753,-0.854099
6.254167,-0.006411,0.030809,-0.856498
6.258333,0.011639,0.038584,-0.876356
6.262500,0.028641,0.074067,-0.877832
6.266667,-0.011639,0.014052,-0.855061
6.270833,-0.016567,0.067232,-0.871623
6.275000,-0.055806,0.057396,-0.861638
6.279167,-0.024021,0.122630,-0.866868
6.283333,0.038867,0.089680,-0.889633
6.287500,0.039912,0.073614,-0.876338
6.291667,0.057594,0.098890,-0.895784
6.295833,-0.020587,0.064029,-0.895655
6.300000,-0.054782,0.150810,-0.893002
6.304167,0.042493,0.096295,-0.890514
6.308333,0.038164,0.052933,-0.887077
6.312500,0.032272,0.168454,-0.903779
6.316667,-0.022744,0.117210,-0.906850
6.320833,-0.020791,0.150879,-0.923601
6.325000,-0.029003,0.102434,-0.914134
6.329167,-0.041027,0.153857,-0.911108
6.333333,-0.015497,0.111778,-0.902553
6.337500,0.042011,0.126820,-0.912559
6.341667,0.056973,0.080325,-0.934868
6.345833,-0.035986,0.106178,-0.921291
6.350000,0.070382,0.076258,-0.938477
6.354167,0.039945,0.003391,-0.927083
6.358333,0.069039,0.052232,-0.919054
6.362500,-0.006463,-0.008191,-0.918680
6.366667,-0.039144,0.056354,-0.931054
6.370833,0.051610,0.013733,-0.929406
6.375000,0.055685,0.034618,-0.942840
6.379167,-0.061944,-0.006535,-0.948957
6.383333,0.037928,-0.024805,-0.922580
6.387500,-0.006948,-0.060172,-0.930029
6.391667,-0.040865,-0.053416,-0.956674
6.395833,0.032881,-0.048900,-0.940062
6.400000,-0.059880,-0.151211,-0.959701
6.404167,-0.025523,-0.181206,-0.957255
6.408333,-0.014353,-0.183072,-0.933085
6.412500,-0.015233,-0.198837,-0.940918
6.416667,-0.035479,-0.201872,-0.966502
6.420833,0.005008,-0.174607,-0.965987
6.425000,-0.044906,-0.219518,-0.940082
6.429167,-0.044062,-0.313723,-0.952011
6.433333,-0.050176,-0.274900,-0.951806
6.437500,-0.005272,-0.238072,-0.947602
6.441667,0.016142,-0.338358,-0.941422
6.445833,-0.064244,-0.315374,-0.948372
6.450000,-0.061431,-0.329925,-0.968490
6.454167,-0.045974,-0.329826,-0.966884
6.458333,0.003833,-0.348615,-0.944554
6.462500,-0.010427,-0.424151,-0.945217
6.466667,-0.067500,-0.318650,-0.973587
6.470833,-0.065766,-0.364641,-0.979687
6.475000,-0.025510,-0.385095,-0.971854
6.479167,-0.080525,-0.404520,-0.978064
6.483333,-0.045099,-0.366386,-0.958542
6.487500,0.013677,-0.358067,-0.980022
6.491667,0.003853,-0.453406,-0.972157
6.495833,0.011616,-0.369174,-0.974101
6.500000,-0.009279,-0.421500,-0.949616
6.504167,-0.064601,-0.392281,-0.972714
6.508333,-0.098022,-0.443262,-0.967315
6.512500,-0.070381,-0.448524,-0.968167
6.516667,-0.046240,-0.421527,-0.983816
6.520833,-0.091432,-0.434898,-0.979942
6.525000,-0.098261,-0.387919,-0.957740
6.529167,-0.156568,-0.331775,-0.983183
6.533333,-0.089132,-0.381583,-0.973472
6.537500,-0.110828,-0.363603,-0.983858
6.541667,-0.178798,-0.329284,-0.954661
6.545833,-0.134802,-0.349198,-0.980138
6.550000,-0.177371,-0.267282,-0.968539
6.554167,-0.101241,-0.349578,-0.974356
6.558333,-0.115065,-0.304766,-0.958001
6.562500,-0.165708,-0.231907,-0.979286
6.566667,-0.154109,-0.226339,-0.950511
6.570833,-0.122228,-0.222838,-0.958203
6.575000,-0.126011,-0.301696,-0.962982
6.579167,-0.182309,-0.252099,-0.948759
6.583333,-0.145468,-0.190759,-0.981237
6.587500,-0.113120,-0.155233,-0.980019
6.591667,-0.151430,-0.204387,-0.962203
6.595833,-0.124948,-0.201251,-0.974246
6.600000,-0.133728,-0.132301,-0.955343
6.604167,-0.068430,-0.170084,-0.975253
6.608333,-0.135032,-0.168368,-0.966932
6.612500,-0.149967,-0.105433,-0.966848
6.616667,-0.059974,-0.137597,-0.960650
6.620833,-0.067519,-0.133696,-0.952784
6.625000,-0.079732,-0.183230,-0.966814
6.629167,-0.100111,-0.135189,-0.957784
6.633333,-0.169484,-0.209416,-0.966966
6.637500,-0.143159,-0.143147,-0.952799
6.641667,-0.174437,-0.180984,-0.969430
6.645833,-0.084855,-0.110245,-0.955484
6.650000,-0.006998,-0.172108,-0.961746
6.654167,0.137411,-0.120834,-0.952813
6.658333,0.376493,-0.229941,-0.955273
6.662500,0.622102,-0.190393,-0.945888
6.666667,0.823759,-0.143465,-0.948455
6.670833,0.988490,-0.181971,-0.955234
6.675000,1.175281,-0.255826,-0.931218
6.679167,1.166504,-0.268387,-0.939280
6.683333,0.965826,-0.219671,-0.945998
6.687500,0.704263,-0.203065,-0.951725
6.691667,0.534152,-0.297040,-0.917696
6.695833,0.242081,-0.307336,-0.919776
6.700000,0.029874,-0.311025,-0.924284
6.704167,-0.001036,-0.326945,-0.916994
6.708333,-0.080511,-0.331404,-0.922252
6.712500,-0.072405,-0.385943,-0.932038
6.716667,0.031126,-0.394300,-0.922945
6.720833,0.121335,-0.411030,-0.908944
6.725000,0.120287,-0.397629,-0.924504
6.729167,0.067402,-0.358282,-0.931879
6.733333,0.193075,-0.435838,-0.920371
6.737500,0.188042,-0.425496,-0.902620
6.741667,0.140895,-0.472045,-0.916947
6.745833,0.149848,-0.427340,-0.905028
6.750000,0.204767,-0.528612,-0.895376
6.754167,0.248154,-0.534753,-0.915773
6.758333,0.175493,-0.461663,-0.914540
6.762500,0.174424,-0.502205,-0.896784
6.766667,0.178863,-0.556733,-0.894706
6.770833,0.216265,-0.561996,-0.897456
6.775000,0.268731,-0.581067,-0.883951
6.779167,0.274710,-0.586802,-0.876806
6.783333,0.257694,-0.616696,-0.893566
6.787500,0.317598,-0.575284,-0.892432
6.791667,0.288985,-0.543623,-0.892687
6.795833,0.248344,-0.626267,-0.862057
6.800000,0.253884,-0.554540,-0.871066
6.804167,0.298267,-0.521239,-0.851693
6.808333,0.242004,-0.595628,-0.881127
6.812500,0.325298,-0.561285,-0.877941
6.816667,0.287995,-0.615187,-0.854475
6.820833,0.271374,-0.498789,-0.850926
6.825000,0.281760,-0.509501,-0.854817
6.829167,0.375333,-0.496207,-0.862427
6.833333,0.360710,-0.550080,-0.852506
6.837500,0.317634,-0.472715,-0.856133
6.841667,0.366302,-0.494883,-0.842468
6.845833,0.304923,-0.469396,-0.821817
6.850000,0.354804,-0.496801,-0.830809
6.854167,0.374043,-0.415244,-0.842328
6.858333,0.380022,-0.425785,-0.829459
6.862500,0.369935,-0.416171,-0.824114
6.866667,0.351207,-0.370820,-0.813388
6.870833,0.411315,-0.357899,-0.825047
6.875000,0.404521,-0.377911,-0.809549
6.879167,0.334490,-0.354723,-0.810701
6.883333,0.349038,-0.421478,-0.786207
6.887500,0.398454,-0.402850,-0.798023
6.891667,0.425483,-0.394053,-0.796527
6.895833,0.307053,-0.369480,-0.781498
6.900000,0.378932,-0.297184,-0.790246
6.904167,0.393081,-0.247518,-0.764611
6.908333,0.334196,-0.310597,-0.762368
6.912500,0.339850,-0.317977,-0.786928
6.916667,0.394220,-0.211231,-0.775471
6.920833,0.313246,-0.202086,-0.774689
6.925000,0.325955,-0.280562,-0.752806
6.929167,0.282090,-0.296022,-0.765540
6.933333,0.246102,-0.212348,-0.754876
6.937500,0.330449,-0.218418,-0.737466
6.941667,0.305308,-0.273869,-0.730420
6.945833,0.217390,-0.193512,-0.721516
6.950000,0.180182,-0.254339,-0.742579
6.954167,0.182410,-0.212366,-0.724905
6.958333,0.181348,-0.164905,-0.735135
6.962500,0.200888,-0.165885,-0.720438
6.966667,0.128299,-0.235435,-0.718050
6.970833,0.177629,-0.232008,-0.718386
6.975000,0.218249,-0.186614,-0.698521
6.979167,0.187831,-0.244099,-0.689000
6.983333,0.186113,-0.282014,-0.696549
6.987500,0.169183,-0.263351,-0.693815
6.991667,0.152576,-0.202880,-0.689215
6.995833,0.143155,-0.241595,-0.697281
7.000000,0.088745,-0.333336,-0.659179
7.004167,0.133286,-0.332105,-0.673198
7.008333,0.042809,-0.297689,-0.655100
7.012500,0.073080,-0.281972,-0.651428
7.016667,0.075807,-0.318317,-0.646124
7.020833,0.082944,-0.280503,-0.659723
7.025000,0.018401,-0.398251,-0.652923
7.029167,-0.000941,-0.360034,-0.640253
7.033333,0.091608,-0.369359,-0.626923
7.037500,0.126412,-0.343847,-0.644711
7.041667,-0.002882,-0.357161,-0.639888
7.045833,-0.013949,-0.423727,-0.625808
7.050000,0.024119,-0.484781,-0.614663
7.054167,0.022913,-0.400880,-0.602932
7.058333,0.057809,-0.403668,-0.618473
7.062500,0.055500,-0.518579,-0.588362
7.066667,0.011244,-0.506911,-0.580183
7.070833,0.092232,-0.478426,-0.573609
7.075000,-0.005792,-0.523472,-0.581463
7.079167,0.001093,-0.446837,-0.579518
7.083333,0.038352,-0.526171,-0.553743
7.087500,0.074230,-0.450678,-0.550812
7.091667,0.034549,-0.520082,-0.557438
7.095833,0.001571,-0.568756,-0.563636
7.100000,0.009340,-0.494899,-0.562317
7.104167,0.058554,-0.515534,-0.534425
7.108333,0.015526,-0.518163,-0.530844
7.112500,-0.020169,-0.562318,-0.540726
7.116667,0.055263,-0.453742,-0.521251
7.120833,0.052089,-0.527065,-0.504347
7.125000,0.030372,-0.483563,-0.525846
7.129167,-0.024416,-0.522843,-0.503416
7.133333,-0.042244,-0.534692,-0.493095
7.137500,0.063712,-0.491862,-0.496187
7.141667,-0.050541,-0.413298,-0.499259
7.145833,0.005832,-0.473506,-0.480668
7.150000,-0.017057,-0.399862,-0.485153
7.154167,0.013071,-0.455645,-0.453239
7.158333,-0.053475,-0.427056,-0.476735
7.162500,-0.023013,-0.370634,-0.445588
7.166667,-0.036826,-0.359344,-0.453641
7.170833,0.029938,-0.381587,-0.458178
7.175000,-0.100616,-0.286885,-0.431535
7.179167,-0.095861,-0.282851,-0.417691
7.183333,-0.066774,-0.265918,-0.408207
7.187500,-0.082417,-0.254001,-0.421645
7.191667,-0.127854,-0.209549,-0.404573
7.195833,-0.068574,-0.244945,-0.402147
7.200000,-0.099167,-0.171059,-0.387792
7.204167,-0.086928,-0.247502,-0.386005
7.208333,-0.091560,-0.241017,-0.381876
7.212500,-0.106052,-0.215539,-0.376066
7.216667,-0.055093,-0.192471,-0.357437
7.220833,-0.068764,-0.179400,-0.357420
7.225000,-0.081721,-0.162587,-0.369493
7.229167,-0.084161,-0.071575,-0.349152
7.233333,-0.160434,-0.058841,-0.361326
7.237500,-0.089801,-0.066121,-0.321772
7.241667,-0.158970,-0.122622,-0.349621
7.245833,-0.112134,-0.031967,-0.337538
7.250000,-0.101697,-0.060677,-0.307179
7.254167,-0.059457,-0.003499,-0.326613
7.258333,-0.106813,0.009914,-0.309655
7.262500,-0.185496,-0.032882,-0.311757
7.266667,-0.182778,-0.018528,-0.300344
7.270833,-0.161632,-0.004825,-0.279821
7.275000,-0.166523,-0.013723,-0.261139
7.279167,-0.144153,0.012070,-0.265563
7.283333,-0.149568,0.003290,-0.277129
7.287500,-0.138540,-0.040772,-0.274515
7.291667,-0.184634,-0.058258,-0.267884
7.295833,-0.155091,0.009676,-0.232350
7.300000,-0.214512,-0.060812,-0.242170
7.304167,-0.186430,-0.031970,-0.247651
7.308333,-0.130632,-0.104844,-0.221949
7.312500,-0.214232,-0.072038,-0.215420
7.316667,-0.241644,-0.049402,-0.218225
7.320833,-0.227131,-0.073687,-0.198558
7.325000,-0.173750,-0.150736,-0.189457
7.329167,-0.215471,-0.146517,-0.197402
7.333333,-0.162908,-0.118994,-0.166939
7.337500,-0.199240,-0.095766,-0.179107
7.341667,-0.223831,-0.125896,-0.172962
7.345833,-0.162791,-0.183931,-0.147951
7.350000,-0.170298,-0.124045,-0.154225
7.354167,-0.154133,-0.207601,-0.128921
7.358333,-0.168908,-0.196005,-0.153522
7.362500,-0.156466,-0.206395,-0.131497
7.366667,-0.204668,-0.164852,-0.119110
7.370833,-0.205113,-0.178393,-0.134999
7.375000,-0.227363,-0.257431,-0.107905
7.379167,-0.121738,-0.194363,-0.087021
7.383333,-0.164468,-0.264645,-0.082496
7.387500,-0.191337,-0.237551,-0.086429
7.391667,-0.096233,-0.289488,-0.067608
7.395833,-0.206152,-0.242313,-0.083816
7.400000,-0.080704,-0.311852,-0.068251
7.404167,-0.056271,-0.225831,-0.046249
7.408333,-0.167769,-0.313875,-0.057065
7.412500,-0.115376,-0.247567,-0.034909
7.416667,-0.191739,-0.310261,-0.033424
7.420833,-0.209449,-0.204487,-0.047500
7.425000,-0.270684,-0.203778,-0.028170
7.429167,-0.210567,-0.274994,-0.012127
7.433333,-0.133952,-0.265147,-0.003015
7.437500,0.096916,-0.207238,-0.018137
7.441667,0.235019,-0.256511,-0.009739
7.445833,0.485155,-0.218110,0.029252
7.450000,0.691423,-0.205538,0.005304
7.454167,0.979833,-0.127745,0.030315
7.458333,1.070095,-0.111324,0.044837
7.462500,1.141207,-0.100785,0.028534
7.466667,0.990914,-0.126150,0.049856
7.470833,0.778718,-0.067524,0.051093
7.475000,0.561023,-0.047723,0.057025
7.479167,0.249957,-0.144681,0.066302
7.483333,0.117653,-0.039659,0.088361
7.487500,-0.041109,-0.055525,0.093475
7.491667,-0.171799,-0.033844,0.109153
7.495833,-0.145886,-0.063384,0.106290
7.500000,-0.123277,0.015107,0.111442
7.504167,-0.069700,-0.003700,0.129468
7.508333,-0.014986,0.075948,0.105043
7.512500,0.071040,0.093463,0.136660
7.516667,0.019239,0.051393,0.147872
7.520833,0.041524,0.158438,0.159229
7.525000,0.087230,0.092491,0.134074
7.529167,0.005006,0.106894,0.148915
7.533333,0.110768,0.205464,0.167531
7.537500,0.036658,0.124977,0.159635
7.541667,0.032104,0.192138,0.177640
7.545833,0.107164,0.220226,0.192760
7.550000,0.051161,0.265842,0.196984
7.554167,0.068062,0.266148,0.184262
7.558333,0.145692,0.275087,0.203474
7.562500,0.129503,0.192598,0.210788
7.566667,0.113137,0.315894,0.224902
7.570833,0.190525,0.248841,0.224457
7.575000,0.167795,0.241062,0.245692
7.579167,0.148289,0.270506,0.257789
7.583333,0.186461,0.329123,0.263109
7.587500,0.178265,0.298461,0.242714
7.591667,0.167170,0.239523,0.251148
7.595833,0.160451,0.303992,0.268868
7.600000,0.180950,0.312837,0.271118
7.604167,0.154315,0.338235,0.302555
7.608333,0.207486,0.280900,0.308250
7.612500,0.166249,0.286656,0.309956
7.616667,0.181250,0.233024,0.316095
7.620833,0.257565,0.305286,0.321551
7.625000,0.243303,0.262073,0.324413
7.629167,0.215133,0.255794,0.348228
7.633333,0.219099,0.207555,0.342204
7.637500,0.326017,0.176179,0.340827
7.641667,0.316466,0.266841,0.368324
7.645833,0.221508,0.244204,0.350354
7.650000,0.288105,0.246609,0.349645
7.654167,0.309970,0.201299,0.372532
7.658333,0.336546,0.156179,0.375605
7.662500,0.303922,0.160118,0.383558
7.666667,0.250969,0.197750,0.405169
7.670833,0.277284,0.149187,0.404529
7.675000,0.306234,0.125798,0.407497
7.679167,0.242877,0.162103,0.413765
7.683333,0.328809,0.152934,0.438733
7.687500,0.302675,0.080706,0.432412
7.691667,0.300673,0.076426,0.423876
7.695833,0.301636,0.152089,0.436829
7.700000,0.314058,0.087028,0.437122
7.704167,0.340803,0.093604,0.460289
7.708333,0.314185,0.052845,0.477127
7.712500,0.254332,0.134107,0.462822
7.716667,0.327076,0.119833,0.460384
7.720833,0.341771,0.103742,0.499843
7.725000,0.212562,0.053963,0.494247
7.729167,0.294422,0.082382,0.500852
7.733333,0.197496,0.069043,0.513602
7.737500,0.220493,0.174531,0.512439
7.741667,0.267571,0.146586,0.508104
7.745833,0.212168,0.156988,0.534683
7.750000,0.169670,0.175261,0.518902
7.754167,0.219068,0.209627,0.544051
7.758333,0.150787,0.195532,0.530638
7.762500,0.231376,0.134724,0.537210
7.766667,0.214935,0.162181,0.539855
7.770833,0.168109,0.242944,0.573442
7.775000,0.213596,0.238696,0.580875
7.779167,0.105559,0.280334,0.573813
7.783333,0.123868,0.313813,0.574396
7.787500,0.204362,0.326210,0.603540
7.791667,0.105667,0.302198,0.613169
7.795833,0.145091,0.306475,0.605820
7.800000,0.089019,0.327684,0.593082
7.804167,0.099931,0.323200,0.598039
7.808333,0.179723,0.417275,0.618360
7.812500,0.082359,0.361642,0.618699
7.816667,0.129839,0.434637,0.646490
7.820833,0.160317,0.456461,0.624553
7.825000,0.084358,0.443731,0.653294
7.829167,0.089483,0.533159,0.644755
7.833333,0.133302,0.490708,0.658123
7.837500,0.162442,0.569325,0.669149
7.841667,0.047532,0.584731,0.662977
7.845833,0.114963,0.601952,0.683241
7.850000,0.043585,0.618526,0.675564
7.854167,0.132440,0.576077,0.672564
7.858333,0.061680,0.604442,0.681865
7.862500,0.018592,0.640019,0.698007
7.866667,0.024436,0.612291,0.724117
7.870833,0.104622,0.719450,0.708238
7.875000,0.097654,0.629769,0.732743
7.879167,0.052209,0.651935,0.724967
7.883333,0.026030,0.704911,0.721634
7.887500,0.079945,0.719505,0.749303
7.891667,0.086689,0.719906,0.727267
7.895833,-0.003461,0.694914,0.747495
7.900000,-0.023411,0.721444,0.761540
7.904167,0.027959,0.786619,0.775485
7.908333,-0.011402,0.737112,0.773310
7.912500,-0.032500,0.684987,0.765863
7.916667,0.037742,0.709068,0.787489
7.920833,0.002480,0.686398,0.792198
7.925000,-0.059184,0.706001,0.771416
7.929167,-0.010729,0.704393,0.806237
7.933333,0.007536,0.783810,0.791838
7.937500,-0.052549,0.727871,0.812512
7.941667,-0.067301,0.691141,0.815992
7.945833,-0.044530,0.692516,0.827012
7.950000,-0.025736,0.690512,0.834175
7.954167,-0.081514,0.717600,0.807703
7.958333,-0.134851,0.651672,0.821093
7.962500,-0.160618,0.753078,0.832670
7.966667,-0.155068,0.734411,0.827656
7.970833,-0.120348,0.711845,0.853232
7.975000,-0.133888,0.627344,0.850625
7.979167,-0.079616,0.650548,0.845392
7.983333,-0.129634,0.605891,0.846096
7.987500,-0.085861,0.617950,0.862270
7.991667,-0.171850,0.614281,0.871221
7.995833,-0.167991,0.632414,0.862102
8.000000,-0.190372,0.687139,0.870215
8.004167,-0.164055,0.643081,0.899993
8.008333,-0.161820,0.666971,0.905593
8.012500,-0.174015,0.592629,0.903579
8.016667,-0.190016,0.695554,0.895262
8.020833,-0.209578,0.606348,0.897945
8.025000,-0.178698,0.699674,0.909581
8.029167,-0.208944,0.655032,0.928221
8.033333,-0.236214,0.609665,0.931564
8.037500,-0.212417,0.683818,0.938103
8.041667,-0.172407,0.665518,0.917313
8.045833,-0.172733,0.612717,0.938925
8.050000,-0.144378,0.676881,0.943617
8.054167,-0.126553,0.641075,0.943003
8.058333,-0.136537,0.690388,0.929226
8.062500,-0.197301,0.706423,0.960259
8.066667,-0.183274,0.720749,0.942543
8.070833,-0.125140,0.755490,0.939578
8.075000,-0.161004,0.756809,0.943996
8.079167,-0.195897,0.819769,0.949401
8.083333,-0.154272,0.779305,0.978221
8.087500,-0.126377,0.868424,0.963952
8.091667,-0.138781,0.873043,0.986380
8.095833,-0.196534,0.858299,0.982449
8.100000,-0.150376,0.923970,0.984988
8.104167,-0.183920,0.947986,1.002727
8.108333,-0.142662,0.953527,0.979082
8.112500,-0.216815,1.009245,0.979364
8.116667,-0.093030,0.941306,1.011983
8.120833,-0.088276,0.950442,1.013846
8.125000,-0.124766,1.068081,0.997210
8.129167,-0.186534,1.081834,0.995089
8.133333,-0.126315,1.121522,1.030865
8.137500,-0.198745,1.137147,1.017940
8.141667,-0.097444,1.172165,1.006259
8.145833,-0.136062,1.203742,1.042018
8.150000,-0.107867,1.139179,1.042334
8.154167,-0.102758,1.149966,1.034041
8.158333,-0.158476,1.213217,1.025347
8.162500,-0.179475,1.250456,1.039122
8.166667,-0.188440,1.214120,1.028849
8.170833,-0.113991,1.254220,1.033624
8.175000,-0.175906,1.266760,1.042396
8.179167,-0.129420,1.334276,1.046194
8.183333,-0.095878,1.343348,1.043619
8.187500,-0.070327,1.288042,1.044966
8.191667,-0.059637,1.332333,1.061741
8.195833,-0.121764,1.314978,1.065615
8.200000,-0.138904,1.408888,1.081994
8.204167,-0.048805,1.370445,1.054143
8.208333,-0.066839,1.373977,1.058941
8.212500,-0.070956,1.442632,1.056527
8.216667,-0.099701,1.375902,1.070452
8.220833,-0.132126,1.418099,1.077803
8.225000,-0.151094,1.365038,1.075593
8.229167,-0.162994,1.422102,1.070811
8.233333,-0.228557,1.431719,1.099542
8.237500,-0.191694,1.364326,1.104222
8.241667,-0.183089,1.370400,1.102637
8.245833,-0.039321,1.396882,1.081017
8.250000,0.037078,1.350476,1.097760
8.254167,0.242085,1.402856,1.113198
8.258333,0.507479,1.368747,1.088321
8.262500,0.770202,1.387971,1.115100
8.266667,0.914746,1.443619,1.096354
8.270833,1.143151,1.367326,1.114687
8.275000,1.087526,1.354008,1.112604
8.279167,0.918469,1.415998,1.098210
8.283333,0.644282,1.414319,1.097402
8.287500,0.446090,1.317705,1.108552
8.291667,0.155262,1.347497,1.110595
8.295833,-0.088824,1.308990,1.122509
8.300000,-0.215561,1.366899,1.117903
8.304167,-0.204996,1.291957,1.122544
8.308333,-0.252159,1.342102,1.105932
8.312500,-0.115982,1.286182,1.114224
8.316667,-0.078622,1.250877,1.122500
8.320833,-0.024464,1.267198,1.124895
8.325000,0.008035,1.307704,1.128447
8.329167,-0.089456,1.242946,1.120805
8.333333,-0.001564,1.300524,1.112518
8.337500,0.008604,1.309476,1.138858
8.341667,0.005638,1.316697,1.119173
8.345833,-0.032463,1.250091,1.145505
8.350000,-0.020732,1.265631,1.115613
8.354167,-0.022428,1.284612,1.125370
8.358333,0.031170,1.279535,1.151357
8.362500,0.015445,1.277638,1.131766
8.366667,-0.004106,1.301737,1.136189
8.370833,-0.041604,1.362326,1.134238
8.375000,0.033164,1.253863,1.125253
8.379167,0.058039,1.309461,1.131624
8.383333,0.019998,1.387467,1.127648
8.387500,0.034068,1.360930,1.134754
8.391667,0.042130,1.378396,1.125211
8.395833,0.084866,1.320206,1.146244
8.400000,0.002302,1.355661,1.143695
8.404167,0.118561,1.357680,1.139464
8.408333,0.084468,1.360615,1.156941
8.412500,0.089826,1.416445,1.147399
8.416667,0.129824,1.385515,1.152370
8.420833,0.085077,1.486064,1.133639
8.425000,0.154482,1.473247,1.158610
8.429167,0.198365,1.502370,1.135222
8.433333,0.212346,1.520843,1.144292
8.437500,0.147147,1.455330,1.158505
8.441667,0.177285,1.518606,1.153249
8.445833,0.183487,1.516031,1.157169
8.450000,0.188001,1.544411,1.144572
8.454167,0.291723,1.522296,1.130082
8.458333,0.309358,1.526871,1.155619
8.462500,0.280753,1.627943,1.136578
8.466667,0.279739,1.575790,1.142456
8.470833,0.372852,1.607541,1.137922
8.475000,0.305494,1.635498,1.149546
8.479167,0.370875,1.622583,1.126538
8.483333,0.394499,1.602564,1.138311
8.487500,0.313211,1.690491,1.131035
8.491667,0.344429,1.694983,1.137222
8.495833,0.302616,1.606904,1.143608
8.500000,0.369142,1.708692,1.140279
8.504167,0.424349,1.653668,1.122162
8.508333,0.436414,1.609911,1.120934
8.512500,0.388712,1.672210,1.117880
8.516667,0.352477,1.614758,1.127514
8.520833,0.332433,1.700251,1.132790
8.525000,0.368081,1.664246,1.135454
8.529167,0.347729,1.612254,1.126094
8.533333,0.406685,1.672218,1.116843
8.537500,0.417037,1.609657,1.127738
8.541667,0.316243,1.617956,1.115152
8.545833,0.293543,1.639065,1.134246
8.550000,0.316408,1.569980,1.130375
8.554167,0.292967,1.600114,1.111064
8.558333,0.289527,1.571038,1.108487
8.562500,0.355845,1.487255,1.124429
8.566667,0.317877,1.534194,1.113514
8.570833,0.339155,1.511849,1.119219
8.575000,0.291855,1.414956,1.120568
8.579167,0.313973,1.480841,1.104398
8.583333,0.298075,1.406557,1.113614
8.587500,0.224754,1.403016,1.113869
8.591667,0.259098,1.337841,1.088006
8.595833,0.180959,1.283117,1.116803
8.600000,0.232119,1.306442,1.110606
8.604167,0.293641,1.334770,1.094639
8.608333,0.175134,1.268694,1.102057
8.612500,0.190055,1.299781,1.102141
8.616667,0.161710,1.178332,1.076296
8.620833,0.254389,1.223212,1.091879
8.625000,0.166902,1.163652,1.070669
8.629167,0.214366,1.189737,1.087323
8.633333,0.130093,1.093086,1.099240
8.637500,0.158547,1.127005,1.072233
8.641667,0.186067,1.042565,1.084543
8.645833,0.085762,1.016413,1.073777
8.650000,0.136201,1.041777,1.072829
8.654167,0.112005,0.994604,1.053221
8.658333,0.129656,1.027455,1.052280
8.662500,0.090505,0.985159,1.051132
8.666667,0.100802,0.971221,1.078271
8.670833,0.072440,1.036630,1.050592
8.675000,0.086888,1.014312,1.065303
8.679167,0.057721,1.011309,1.037885
8.683333,0.071140,0.980903,1.040116
8.687500,0.056416,0.919218,1.056119
8.691667,0.094857,0.988205,1.036252
8.695833,0.009382,0.880454,1.054287
8.700000,0.022307,0.879272,1.048157
8.704167,0.030150,0.967150,1.032339
8.708333,0.059682,0.891270,1.031472
8.712500,0.037540,0.932634,1.026003
8.716667,0.010949,0.906114,1.015679
8.720833,-0.004820,0.905341,1.018230
8.725000,0.006298,0.889084,1.002296
8.729167,-0.068078,0.881840,1.015686
8.733333,-0.005812,0.900486,0.999821
8.737500,-0.080585,0.931857,1.014321
8.741667,-0.065160,0.941101,1.002434
8.745833,-0.111205,0.913160,0.985042
8.750000,-0.026265,0.870336,0.993486
8.754167,-0.128399,0.927292,0.988613
8.758333,-0.110989,0.874476,0.982861
8.762500,-0.071090,0.869019,0.991773
8.766667,-0.055065,0.875247,0.992460
8.770833,-0.057389,0.928124,0.989049
8.775000,-0.061828,0.931572,0.979606
8.779167,-0.157314,0.926129,0.961998
8.783333,-0.165094,0.963922,0.979054
8.787500,-0.064231,0.967460,0.974562
8.791667,-0.104921,0.881732,0.948583
8.795833,-0.163083,0.944932,0.942766
8.800000,-0.080778,0.909959,0.939267
8.804167,-0.171680,0.934717,0.948363
8.808333,-0.097147,0.951334,0.926568
8.812500,-0.158091,0.882822,0.927970
8.816667,-0.166945,0.902442,0.922942
8.820833,-0.071668,0.845369,0.933513
8.825000,-0.155573,0.875597,0.907945
8.829167,-0.071327,0.833900,0.905750
8.833333,-0.050163,0.824113,0.896897
8.837500,-0.028240,0.849391,0.905280
8.841667,-0.116030,0.823057,0.914146
8.845833,-0.096456,0.736372,0.884737
8.850000,-0.127910,0.766384,0.895276
8.854167,-0.009716,0.765967,0.883159
8.858333,-0.015821,0.656657,0.875845
8.862500,-0.080498,0.648703,0.883009
8.866667,-0.109354,0.679139,0.883663
8.870833,-0.098813,0.625537,0.854992
8.875000,-0.061991,0.610476,0.845492
8.879167,-0.115791,0.589309,0.839778
8.883333,-0.022951,0.585108,0.848004
8.887500,-0.006637,0.483127,0.841016
8.891667,-0.027261,0.481544,0.837410
8.895833,-0.135106,0.452484,0.819378
8.900000,-0.074217,0.465197,0.843935
8.904167,-0.025013,0.403954,0.807857
8.908333,-0.074283,0.412783,0.818884
8.912500,-0.106410,0.365840,0.812610
8.916667,-0.040609,0.299630,0.806177
8.920833,-0.057766,0.299882,0.819146
8.925000,-0.063668,0.226959,0.802370
8.929167,-0.125976,0.264037,0.778907
8.933333,-0.094875,0.260866,0.790185
8.937500,-0.011501,0.156409,0.786289
8.941667,-0.022538,0.139642,0.762349
8.945833,-0.047476,0.181318,0.754434
8.950000,-0.000532,0.102187,0.750761
8.954167,-0.036254,0.119089,0.762753
8.958333,-0.006153,0.124627,0.766731
8.962500,-0.073983,0.130867,0.748248
8.966667,-0.076652,0.086270,0.734540
8.970833,-0.080732,0.012708,0.749934
8.975000,-0.083440,0.082394,0.730119
8.979167,-0.086846,-0.038942,0.731093
8.983333,-0.069993,0.037252,0.707720
8.987500,-0.077071,-0.006206,0.726352
8.991667,-0.096212,-0.027213,0.719070
8.995833,-0.161033,0.014843,0.706633
9.000000,-0.182687,-0.070291,0.676190
9.004167,-0.177761,-0.016108,0.670623
9.008333,-0.134780,-0.082454,0.664634
9.012500,0.020036,0.006930,0.678754
9.016667,0.151899,0.001643,0.680671
9.020833,0.428267,-0.082955,0.661496
9.025000,0.602161,-0.092019,0.641958
9.029167,0.822830,-0.095902,0.642992
9.033333,0.980851,-0.009591,0.659633
9.037500,1.122657,-0.014115,0.654413
9.041667,0.928715,-0.028557,0.630218
9.045833,0.814000,-0.049100,0.632403
9.050000,0.564338,0.010559,0.631492
9.054167,0.308446,0.006421,0.626578
9.058333,0.014484,0.012904,0.620199
9.062500,-0.112456,-0.012732,0.603626
9.066667,-0.257755,-0.004938,0.579309
9.070833,-0.208885,0.019535,0.595562
9.075000,-0.266540,-0.009107,0.592148
9.079167,-0.139546,-0.045790,0.579086
9.083333,-0.162315,0.001662,0.579038
9.087500,-0.039698,0.066702,0.560562
9.091667,-0.051673,0.019078,0.566162
9.095833,-0.073422,0.073202,0.532908
9.100000,-0.049400,0.073356,0.547620
9.104167,-0.052065,0.071892,0.524590
9.108333,-0.061178,0.024022,0.514574
9.112500,-0.038757,0.091073,0.525189
9.116667,-0.029411,0.008431,0.495275
9.120833,-0.063463,-0.020771,0.508643
9.125000,-0.099907,-0.013097,0.497558
9.129167,-0.096309,0.067055,0.495601
9.133333,-0.027591,-0.010667,0.468799
9.137500,-0.003762,-0.005943,0.460277
9.141667,-0.035481,-0.026141,0.478589
9.145833,-0.036821,-0.053288,0.448928
9.150000,0.024427,-0.014845,0.447264
9.154167,-0.037328,-0.040483,0.448577
9.158333,0.067407,-0.053562,0.423696
9.162500,-0.017889,-0.070965,0.441389
9.166667,0.046777,-0.054644,0.435094
9.170833,0.096611,-0.044216,0.403625
9.175000,0.074001,-0.114066,0.424884
9.179167,0.108535,-0.131205,0.391099
9.183333,0.065965,-0.166446,0.415472
9.187500,0.115879,-0.170942,0.397905
9.191667,0.117138,-0.153254,0.400273
9.195833,0.145152,-0.188916,0.373273
9.200000,0.168724,-0.236566,0.356797
9.204167,0.276027,-0.194030,0.369140
9.208333,0.185090,-0.220706,0.366881
9.212500,0.175563,-0.182497,0.352149
9.216667,0.315666,-0.281770,0.332724
9.220833,0.329632,-0.275807,0.348196
9.225000,0.275179,-0.274919,0.339256
9.229167,0.346189,-0.345099,0.316220
9.233333,0.382373,-0.306268,0.312177
9.237500,0.300883,-0.315416,0.307579
9.241667,0.420907,-0.414291,0.289901
9.245833,0.390954,-0.365450,0.289137
9.250000,0.391205,-0.419735,0.264317
9.254167,0.379336,-0.430503,0.287015
9.258333,0.393479,-0.475434,0.276833
9.262500,0.381945,-0.438943,0.256721
9.266667,0.372290,-0.413930,0.254572
9.270833,0.435658,-0.523860,0.236066
9.275000,0.384783,-0.447207,0.223415
9.279167,0.362058,-0.531579,0.215741
9.283333,0.492494,-0.456288,0.229752
9.287500,0.480848,-0.494614,0.205248
9.291667,0.485467,-0.479387,0.192323
9.295833,0.404800,-0.457785,0.204955
9.300000,0.376623,-0.570391,0.185400
9.304167,0.428626,-0.552031,0.182107
9.308333,0.411783,-0.550698,0.182727
9.312500,0.384261,-0.574825,0.151659
9.316667,0.340743,-0.509718,0.143614
9.320833,0.413997,-0.554806,0.164012
9.325000,0.401214,-0.502937,0.130185
9.329167,0.337596,-0.526655,0.142938
9.333333,0.408582,-0.548222,0.129961
9.337500,0.360066,-0.477049,0.133086
9.341667,0.319484,-0.510206,0.127543
9.345833,0.380181,-0.505225,0.093519
9.350000,0.376044,-0.446912,0.099451
9.354167,0.321931,-0.496950,0.108703
9.358333,0.309773,-0.406165,0.096022
9.362500,0.296533,-0.415493,0.081928
9.366667,0.296901,-0.453824,0.080319
9.370833,0.252581,-0.356082,0.075868
9.375000,0.259850,-0.405938,0.047714
9.379167,0.253656,-0.380856,0.039134
9.383333,0.217940,-0.291449,0.054685
9.387500,0.287108,-0.277732,0.044947
9.391667,0.199957,-0.313101,0.034244
9.395833,0.258010,-0.304126,0.011640
9.400000,0.244910,-0.251589,0.017743
9.404167,0.204611,-0.321439,0.009970
9.408333,0.217710,-0.220584,0.006573
9.412500,0.180881,-0.298834,-0.021071
9.416667,0.191237,-0.216794,-0.034925
9.420833,0.149504,-0.189397,-0.020292
9.425000,0.145364,-0.261888,-0.031707
9.429167,0.198094,-0.277975,-0.048678
9.433333,0.146962,-0.226413,-0.050189
9.437500,0.111250,-0.233996,-0.062768
9.441667,0.078170,-0.214258,-0.077567
9.445833,0.111758,-0.198336,-0.065722
9.450000,0.168774,-0.191608,-0.089827
9.454167,0.168671,-0.141646,-0.104738
9.458333,0.099453,-0.257871,-0.096726
9.462500,0.121643,-0.197240,-0.090788
9.466667,0.076927,-0.146630,-0.114137
9.470833,0.033963,-0.196754,-0.107491
9.475000,0.127770,-0.180260,-0.145487
9.479167,0.051092,-0.255973,-0.151099
9.483333,0.074351,-0.196418,-0.137872
9.487500,0.006769,-0.201974,-0.164906
9.491667,-0.005372,-0.214218,-0.160896
9.495833,-0.000119,-0.286919,-0.159125
9.500000,0.006874,-0.311225,-0.178069
9.504167,0.040030,-0.328002,-0.176095
9.508333,-0.029206,-0.283998,-0.193051
9.512500,-0.024541,-0.242619,-0.209292
9.516667,0.013877,-0.287710,-0.213862
9.520833,0.065540,-0.322469,-0.214926
9.525000,0.046374,-0.289795,-0.215632
9.529167,0.034466,-0.370514,-0.231474
9.533333,-0.053327,-0.397544,-0.249500
9.537500,-0.033981,-0.415397,-0.245005
9.541667,-0.034242,-0.348784,-0.259752
9.545833,-0.011835,-0.371498,-0.263141
9.550000,-0.057279,-0.403734,-0.245774
9.554167,0.001262,-0.377055,-0.268069
9.558333,0.014473,-0.469630,-0.290281
9.562500,-0.010860,-0.434695,-0.286199
9.566667,-0.018611,-0.518075,-0.278129
9.570833,-0.029046,-0.482220,-0.305141
9.575000,0.034322,-0.486006,-0.321044
9.579167,-0.070762,-0.465265,-0.327855
9.583333,-0.053680,-0.474252,-0.304683
9.587500,-0.036355,-0.501921,-0.334111
9.591667,0.052653,-0.479098,-0.332472
9.595833,0.003082,-0.492118,-0.359167
9.600000,-0.018820,-0.495523,-0.357149
9.604167,-0.016130,-0.462697,-0.354444
9.608333,0.054923,-0.518633,-0.374117
9.612500,0.066480,-0.541613,-0.369846
9.616667,0.040883,-0.538898,-0.384426
9.620833,0.034776,-0.509905,-0.394440
9.625000,0.059124,-0.441484,-0.376460
9.629167,0.015820,-0.480119,-0.416840
9.633333,0.101569,-0.472083,-0.407809
9.637500,0.133561,-0.497866,-0.406632
9.641667,0.079119,-0.433788,-0.428896
9.645833,0.025925,-0.468308,-0.424487
9.650000,0.048193,-0.413559,-0.441842
9.654167,0.059642,-0.402662,-0.448930
9.658333,0.034869,-0.344408,-0.458119
9.662500,0.071607,-0.423610,-0.440595
9.666667,0.031032,-0.311595,-0.459420
9.670833,0.097998,-0.315787,-0.457763
9.675000,0.093468,-0.335560,-0.487328
9.679167,0.002140,-0.351066,-0.484567
9.683333,-0.009399,-0.267681,-0.494946
9.687500,0.098890,-0.245123,-0.493919
9.691667,0.017132,-0.256036,-0.494392
9.695833,-0.027363,-0.305492,-0.510902
9.700000,-0.000435,-0.178030,-0.509043
9.704167,0.095688,-0.175556,-0.532860
9.708333,0.044776,-0.245904,-0.545014
9.712500,0.055254,-0.138029,-0.551703
9.716667,-0.028061,-0.179986,-0.556144
9.720833,0.035802,-0.094643,-0.550484
9.725000,0.018727,-0.073825,-0.563394
9.729167,0.034607,-0.082092,-0.556417
9.733333,0.003551,-0.058167,-0.580569
9.737500,-0.025051,-0.075384,-0.584210
9.741667,0.018100,-0.043453,-0.567044
9.745833,0.018467,-0.069321,-0.572962
9.750000,-0.056952,-0.007683,-0.576996
9.754167,-0.040232,-0.025830,-0.592639
9.758333,-0.069273,-0.038807,-0.618101
9.762500,-0.056660,-0.043710,-0.621258
9.766667,-0.081557,-0.042146,-0.611306
9.770833,-0.082247,-0.075003,-0.622445
9.775000,-0.194059,-0.022171,-0.640380
9.779167,-0.205036,0.005437,-0.624909
9.783333,-0.120101,-0.073340,-0.648382
9.787500,-0.026711,-0.074174,-0.662628
9.791667,0.142858,-0.087408,-0.651067
9.795833,0.222011,-0.035487,-0.650859
9.800000,0.545649,-0.031709,-0.676156
9.804167,0.795992,-0.033050,-0.665855
9.808333,0.938341,-0.082629,-0.683692
9.812500,1.058171,-0.055360,-0.691901
9.816667,1.024968,-0.089072,-0.693837
9.820833,0.910059,-0.103114,-0.699546
9.825000,0.620232,-0.065656,-0.709763
9.829167,0.367942,-0.123578,-0.699259
9.833333,0.066387,-0.145661,-0.701829
9.837500,-0.084053,-0.128270,-0.715412
9.841667,-0.291488,-0.143874,-0.726410
9.845833,-0.265427,-0.203325,-0.738465
9.850000,-0.263303,-0.222989,-0.737812
9.854167,-0.244364,-0.218786,-0.754038
9.858333,-0.143488,-0.193183,-0.763423
9.862500,-0.109927,-0.181691,-0.770552
9.866667,-0.076848,-0.172839,-0.767090
9.870833,-0.114429,-0.228276,-0.769181
9.875000,-0.122088,-0.202132,-0.758868
9.879167,-0.088102,-0.185779,-0.758518
9.883333,-0.154920,-0.185082,-0.765173
9.887500,-0.074933,-0.222875,-0.770767
9.891667,-0.047998,-0.212024,-0.790723
9.895833,-0.121600,-0.273769,-0.795720
9.900000,-0.063088,-0.312761,-0.807939
9.904167,-0.062219,-0.276437,-0.814016
9.908333,-0.049026,-0.206856,-0.803689
9.912500,-0.053757,-0.318445,-0.809944
9.916667,-0.015675,-0.251359,-0.804610
9.920833,0.042248,-0.296885,-0.814766
9.925000,-0.020946,-0.207392,-0.845212
9.929167,-0.039052,-0.247714,-0.819013
9.933333,0.039457,-0.200907,-0.854512
9.937500,0.071973,-0.243583,-0.857567
9.941667,0.000147,-0.265052,-0.851363
9.945833,0.057740,-0.253710,-0.872204
9.950000,0.095249,-0.241989,-0.845594
9.954167,0.166938,-0.168501,-0.849790
9.958333,0.131173,-0.121583,-0.862952
9.962500,0.143661,-0.145189,-0.861435
9.966667,0.160405,-0.172205,-0.872302
9.970833,0.181198,-0.112125,-0.868663
9.975000,0.170067,-0.168546,-0.888912
9.979167,0.199471,-0.049365,-0.907620
9.983333,0.243649,-0.049306,-0.889978
9.987500,0.337379,-0.060909,-0.915610
9.991667,0.335164,-0.043277,-0.888266
9.995833,0.350024,-0.062245,-0.900623
10.000000,0.303282,-0.058584,-0.896812
10.004167,0.302237,-0.038866,-0.932999
10.008333,0.409620,0.050881,-0.937115
10.012500,0.371520,0.056610,-0.925901
10.016667,0.335009,0.072756,-0.923980
10.020833,0.442122,0.043101,-0.937453
10.025000,0.406275,0.126475,-0.945829
10.029167,0.360919,0.174898,-0.924293
10.033333,0.384321,0.142772,-0.934494
10.037500,0.411599,0.198296,-0.944592
10.041667,0.430603,0.192144,-0.965083
10.045833,0.449262,0.142477,-0.938913
10.050000,0.458859,0.227885,-0.948296
10.054167,0.497677,0.238032,-0.960331
10.058333,0.517785,0.283375,-0.958590
10.062500,0.457823,0.195016,-0.971962
10.066667,0.429448,0.265077,-0.969053
10.070833,0.412404,0.227978,-0.984337
10.075000,0.489280,0.270006,-0.993010
10.079167,0.462447,0.245327,-0.978991
10.083333,0.466741,0.305578,-0.977361
10.087500,0.413923,0.251051,-0.970840
10.091667,0.466156,0.251425,-0.984270
10.095833,0.356137,0.271434,-0.980633
10.100000,0.347152,0.246328,-0.991772
10.104167,0.430506,0.273305,-0.993476
10.108333,0.399401,0.312368,-0.999456
10.112500,0.364142,0.193128,-1.000002
10.116667,0.322673,0.230705,-0.995263
10.120833,0.416733,0.190974,-1.009010
10.125000,0.277044,0.254143,-1.024526
10.129167,0.330749,0.234456,-1.021882
10.133333,0.295987,0.181670,-1.023071
10.137500,0.254606,0.160298,-1.030965
10.141667,0.276786,0.138193,-1.016048
10.145833,0.243051,0.153951,-1.026156
10.150000,0.317889,0.123352,-1.036775
10.154167,0.326576,0.191826,-1.042577
10.158333,0.250718,0.115104,-1.018692
10.162500,0.275302,0.148013,-1.036916
10.166667,0.261324,0.149626,-1.054080
10.170833,0.198186,0.143691,-1.029072
10.175000,0.266657,0.134029,-1.057951
10.179167,0.206559,0.112673,-1.033988
10.183333,0.251146,0.035307,-1.053671
10.187500,0.250418,0.099922,-1.034687
10.191667,0.192601,0.113584,-1.042410
10.195833,0.110436,0.065732,-1.062697
10.200000,0.155666,0.016844,-1.058852
10.204167,0.116880,-0.001674,-1.067294
10.208333,0.089017,0.013132,-1.042598
10.212500,0.156861,-0.014682,-1.077660
10.216667,0.134677,-0.017026,-1.057388
10.220833,0.121373,-0.000651,-1.062078
10.225000,0.093773,0.052138,-1.080125
10.229167,0.084124,0.097609,-1.083627
10.233333,0.140781,0.008116,-1.057038
10.237500,0.151194,0.072036,-1.085717
10.241667,0.091371,0.024543,-1.080286
10.245833,0.137941,0.002456,-1.062642
10.250000,0.135285,0.078640,-1.087478
10.254167,0.138030,0.070267,-1.087647
10.258333,0.049333,0.047026,-1.067463
10.262500,0.031237,0.071776,-1.077838
10.266667,0.035191,0.069992,-1.083167
10.270833,0.083819,0.068084,-1.084254
10.275000,0.030023,0.150061,-1.069160
10.279167,0.015752,0.126232,-1.068087
10.283333,0.072702,0.172614,-1.082179
10.287500,0.053934,0.174095,-1.097470
10.291667,0.075053,0.226439,-1.079285
10.295833,0.085988,0.235936,-1.078463
10.300000,0.056955,0.182726,-1.079311
10.304167,0.040250,0.276336,-1.086297
10.308333,0.034239,0.251431,-1.093789
10.312500,0.075526,0.323084,-1.072827
10.316667,0.075472,0.246856,-1.072871
10.320833,0.063470,0.281373,-1.088497
10.325000,0.066715,0.390234,-1.086676
10.329167,0.118926,0.406764,-1.092755
10.333333,0.091356,0.339782,-1.104672
10.337500,0.056030,0.353468,-1.085510
10.341667,0.017852,0.392711,-1.078901
10.345833,0.011873,0.455691,-1.086543
10.350000,0.046128,0.407650,-1.071947
10.354167,0.044993,0.464202,-1.100180
10.358333,0.144153,0.426081,-1.086149
10.362500,0.073265,0.446255,-1.076450
10.366667,0.037871,0.429617,-1.072043
10.370833,0.141392,0.525218,-1.072466
10.375000,0.111362,0.451372,-1.091932
10.379167,0.145398,0.518220,-1.078463
10.383333,0.088039,0.456734,-1.101071
10.387500,0.099958,0.563176,-1.099392
10.391667,0.072921,0.461954,-1.089331
10.395833,0.125540,0.509325,-1.078122
10.400000,0.181825,0.521676,-1.099467
10.404167,0.184815,0.503748,-1.073940
10.408333,0.178277,0.481757,-1.089096
10.412500,0.103838,0.450653,-1.086131
10.416667,0.200690,0.447764,-1.073562
10.420833,0.205244,0.472318,-1.089119
10.425000,0.154253,0.523041,-1.087848
10.429167,0.224540,0.450777,-1.074657
10.433333,0.191062,0.420271,-1.066430
10.437500,0.218567,0.494418,-1.087424
10.441667,0.180707,0.483223,-1.085368
10.445833,0.151648,0.412421,-1.069143
10.450000,0.115402,0.477433,-1.076555
10.454167,0.126586,0.359651,-1.053683
10.458333,0.191019,0.461139,-1.079257
10.462500,0.141172,0.339287,-1.080623
10.466667,0.065087,0.435380,-1.061457
10.470833,0.130827,0.368154,-1.063670
10.475000,0.067561,0.405558,-1.048740
10.479167,0.042043,0.332618,-1.047223
10.483333,0.073798,0.296416,-1.066532
10.487500,0.112008,0.273140,-1.052713
10.491667,0.088561,0.330063,-1.046554
10.495833,-0.014084,0.242822,-1.065918
10.500000,0.018219,0.222045,-1.054702
10.504167,0.051520,0.247383,-1.059504
10.508333,0.080909,0.213642,-1.065048
10.512500,0.029503,0.234612,-1.049563
10.516667,-0.020120,0.190946,-1.058843
10.520833,0.041889,0.229194,-1.030607
10.525000,-0.054731,0.181653,-1.035397
10.529167,0.014324,0.230033,-1.056769
10.533333,-0.016254,0.273384,-1.034400
10.537500,-0.037208,0.161942,-1.050577
10.541667,-0.078535,0.238182,-1.036480
10.545833,-0.101679,0.161737,-1.017409
10.550000,-0.055571,0.219436,-1.026780
10.554167,-0.022813,0.206235,-1.037329
10.558333,-0.046649,0.251841,-1.038099
10.562500,-0.176343,0.216429,-1.028924
10.566667,-0.146355,0.273457,-1.004258
10.570833,-0.143137,0.265164,-1.020247
10.575000,-0.222148,0.301186,-1.022783
10.579167,-0.209094,0.260208,-0.999722
10.583333,-0.178069,0.319950,-1.018722
10.587500,-0.038219,0.236333,-1.003073
10.591667,0.106341,0.316194,-1.004899
10.595833,0.259496,0.345071,-0.996181
10.600000,0.546442,0.287359,-1.002417
10.604167,0.799946,0.320771,-0.990627
10.608333,0.890528,0.388260,-0.985538
10.612500,0.907943,0.412512,-1.000069
10.616667,0.877971,0.310911,-0.982014
10.620833,0.694465,0.352544,-0.964085
10.625000,0.402388,0.359946,-0.986402
10.629167,0.217227,0.448236,-0.975356
10.633333,-0.108507,0.450464,-0.962142
10.637500,-0.169750,0.493892,-0.975217
10.641667,-0.385534,0.450141,-0.947522
10.645833,-0.367977,0.484946,-0.958635
10.650000,-0.365159,0.516161,-0.957432
10.654167,-0.268542,0.470672,-0.953426
10.658333,-0.161366,0.480651,-0.950041
10.662500,-0.147196,0.494203,-0.948593
10.666667,-0.122304,0.502603,-0.953678
10.670833,-0.102995,0.599649,-0.921949
10.675000,-0.153342,0.549529,-0.941607
10.679167,-0.075226,0.599856,-0.933842
10.683333,-0.122439,0.528255,-0.936761
10.687500,-0.083547,0.599704,-0.909066
10.691667,-0.045063,0.520721,-0.912317
10.695833,-0.073430,0.565069,-0.896803
10.700000,-0.067902,0.547247,-0.924679
10.704167,-0.097502,0.536173,-0.889702
10.708333,-0.017726,0.546750,-0.905016
10.712500,-0.035176,0.578219,-0.911768
10.716667,-0.066750,0.511577,-0.895167
10.720833,0.031693,0.523404,-0.891633
10.725000,0.061958,0.518508,-0.873768
10.729167,0.061736,0.507688,-0.872215
10.733333,0.049469,0.526423,-0.858426
10.737500,0.099912,0.533835,-0.873350
10.741667,0.029040,0.539590,-0.883886
10.745833,0.090475,0.449799,-0.868783
10.750000,0.078277,0.496981,-0.840889
10.754167,0.149395,0.500968,-0.861781
10.758333,0.197718,0.478152,-0.849306
10.762500,0.122156,0.446963,-0.858538
10.766667,0.199346,0.440491,-0.834501
10.770833,0.288584,0.353644,-0.837398
10.775000,0.192867,0.398008,-0.843151
10.779167,0.217951,0.429185,-0.835260
10.783333,0.266603,0.311561,-0.815493
10.787500,0.373461,0.311771,-0.818192
10.791667,0.331074,0.280413,-0.793055
10.795833,0.304504,0.345684,-0.800420
10.800000,0.411127,0.327309,-0.801305
10.804167,0.355355,0.312247,-0.779155
10.808333,0.409425,0.295060,-0.798614
10.812500,0.423138,0.222399,-0.793025
10.816667,0.408529,0.289657,-0.774021
10.820833,0.465399,0.189432,-0.757349
10.825000,0.460978,0.227862,-0.779044
10.829167,0.475808,0.194035,-0.771467
10.833333,0.398389,0.168100,-0.773728
10.837500,0.495405,0.214923,-0.764333
10.841667,0.491620,0.130719,-0.736253
10.845833,0.432355,0.224555,-0.731642
10.850000,0.444756,0.143053,-0.747688
10.854167,0.446100,0.111930,-0.721254
10.858333,0.440945,0.111855,-0.736382
10.862500,0.352353,0.189456,-0.734837
10.866667,0.392304,0.179475,-0.714694
10.870833,0.376722,0.144110,-0.693812
10.875000,0.359092,0.180305,-0.709089
10.879167,0.315755,0.149746,-0.694041
10.883333,0.359031,0.109770,-0.691796
10.887500,0.382276,0.174924,-0.697506
10.891667,0.277363,0.192340,-0.688536
10.895833,0.308163,0.169305,-0.672740
10.900000,0.358644,0.135190,-0.686243
10.904167,0.327790,0.219247,-0.681144
10.908333,0.332681,0.200555,-0.661106
10.912500,0.298499,0.271050,-0.643155
10.916667,0.236305,0.270925,-0.650267
10.920833,0.255637,0.201464,-0.653217
10.925000,0.256334,0.304436,-0.625372
10.929167,0.239980,0.237716,-0.619153
10.933333,0.147856,0.246443,-0.612219
10.937500,0.221439,0.321173,-0.601593
10.941667,0.170542,0.267294,-0.607079
10.945833,0.171469,0.280279,-0.589430
10.950000,0.170570,0.378092,-0.587953
10.954167,0.147815,0.275801,-0.605035
10.958333,0.173490,0.397195,-0.579966
10.962500,0.093902,0.334801,-0.574050
10.966667,0.081673,0.341783,-0.568177
10.970833,0.095438,0.334806,-0.579902
10.975000,0.111850,0.356489,-0.556079
10.979167,0.112334,0.435827,-0.569741
10.983333,0.127997,0.390469,-0.543027
10.987500,0.067484,0.382431,-0.549502
10.991667,0.100278,0.434632,-0.527569
10.995833,0.047845,0.402787,-0.520405
11.000000,0.128306,0.433772,-0.514259
11.004167,0.099215,0.460441,-0.522992
11.008333,0.023452,0.365835,-0.518989
11.012500,0.107709,0.353010,-0.488704
11.016667,0.105796,0.428986,-0.510768
11.020833,0.101870,0.384688,-0.486381
11.025000,0.029695,0.428223,-0.477292
11.029167,0.029424,0.373367,-0.459322
11.033333,0.106766,0.326969,-0.485329
11.037500,0.032482,0.424354,-0.466278
11.041667,0.019796,0.359885,-0.441947
11.045833,0.029599,0.382154,-0.445571
11.050000,0.090852,0.333403,-0.444406
11.054167,0.082562,0.343850,-0.443080
11.058333,0.071307,0.328293,-0.446431
11.062500,0.110747,0.316535,-0.418634
11.066667,0.084623,0.229434,-0.407147
11.070833,0.057468,0.254325,-0.396198
11.075000,0.100708,0.282132,-0.415139
11.079167,0.122010,0.166050,-0.385197
11.083333,0.096621,0.187952,-0.379287
11.087500,0.075403,0.179055,-0.376858
11.091667,0.140210,0.173587,-0.377508
11.095833,0.097699,0.187157,-0.353909
11.100000,0.115377,0.082565,-0.378805
11.104167,0.186930,0.130221,-0.371013
11.108333,0.172365,0.051848,-0.352996
11.112500,0.076837,0.049515,-0.354319
11.116667,0.156664,0.060840,-0.320953
11.120833,0.201839,-0.016978,-0.335127
11.125000,0.126103,0.017288,-0.323037
11.129167,0.177423,-0.052531,-0.309174
11.133333,0.086439,0.010386,-0.307682
11.137500,0.153354,0.015633,-0.287444
11.141667,0.207999,-0.005213,-0.297137
11.145833,0.134739,-0.057710,-0.291800
11.150000,0.181881,-0.089363,-0.279240
11.154167,0.178576,-0.101953,-0.267031
11.158333,0.155631,-0.072924,-0.260677
11.162500,0.176241,-0.060349,-0.240480
11.166667,0.236751,-0.095351,-0.233941
11.170833,0.182508,-0.044663,-0.248640
11.175000,0.174469,-0.098668,-0.236054
11.179167,0.194936,-0.099755,-0.215045
11.183333,0.230735,-0.114981,-0.206698
11.187500,0.202329,-0.093853,-0.224582
11.191667,0.202569,-0.149746,-0.200185
11.195833,0.180692,-0.143040,-0.200948
11.200000,0.210277,-0.114196,-0.206068
11.204167,0.223393,-0.049423,-0.177416
11.208333,0.263556,-0.074272,-0.173235
11.212500,0.188469,-0.068323,-0.180531
11.216667,0.201876,-0.080564,-0.178486
11.220833,0.241846,-0.029838,-0.173002
11.225000,0.152954,-0.062370,-0.162848
11.229167,0.126031,-0.015631,-0.125368
11.233333,0.186042,-0.055642,-0.135709
11.237500,0.204338,-0.068030,-0.120565
11.241667,0.153068,-0.016662,-0.135865
11.245833,0.039062,-0.047027,-0.112453
11.250000,0.137536,-0.045683,-0.113105
11.254167,0.058454,0.039052,-0.095077
11.258333,0.046981,-0.009999,-0.077249
11.262500,0.017525,0.027195,-0.082171
11.266667,0.064104,0.092530,-0.080177
11.270833,0.011874,0.093067,-0.060437
11.275000,0.004536,0.019724,-0.075198
11.279167,0.032805,0.124581,-0.071650
11.283333,-0.049110,0.021760,-0.037200
11.287500,-0.006795,0.069620,-0.030019
11.291667,-0.081123,0.145050,-0.037845
11.295833,-0.049000,0.039614,-0.044825
11.300000,-0.101860,0.061665,-0.007243
11.304167,-0.029382,0.113801,-0.006195
11.308333,-0.099949,0.160009,-0.022706
11.312500,-0.129575,0.135454,0.011679
11.316667,-0.078872,0.145153,0.021545
11.320833,-0.123959,0.164859,0.016584
11.325000,-0.103107,0.160177,0.031724
11.329167,-0.113648,0.086940,0.020618
11.333333,-0.094403,0.148955,0.051932
11.337500,-0.139505,0.114670,0.057778
11.341667,-0.245887,0.025757,0.048882
11.345833,-0.228214,0.056797,0.041528
11.350000,-0.303879,0.094890,0.073584
11.354167,-0.258648,0.016028,0.077347
11.358333,-0.304494,-0.007664,0.091182
11.362500,-0.205292,0.020160,0.070152
11.366667,-0.059557,0.016956,0.082725
11.370833,0.119199,-0.010420,0.114515
11.375000,0.339141,0.030246,0.123680
11.379167,0.593615,-0.069345,0.109156
11.383333,0.854840,-0.061880,0.136482
11.387500,0.940569,-0.049257,0.144582
11.391667,0.956339,-0.032526,0.119635
11.395833,0.801178,-0.097334,0.155791
11.400000,0.485953,-0.082769,0.158534
11.404167,0.259412,-0.178412,0.141664
11.408333,0.055808,-0.118515,0.181413
11.412500,-0.182676,-0.146564,0.154755
11.416667,-0.295639,-0.204285,0.176273
11.420833,-0.326265,-0.268956,0.171813
11.425000,-0.406159,-0.258417,0.203609
11.429167,-0.305853,-0.278239,0.200602
11.433333,-0.281010,-0.257364,0.221003
11.437500,-0.133477,-0.315897,0.201761
11.441667,-0.124754,-0.349626,0.222679
11.445833,-0.125231,-0.346246,0.221585
11.450000,-0.127501,-0.342339,0.225976
11.454167,-0.103610,-0.382593,0.257953
11.458333,-0.140424,-0.317501,0.249427
11.462500,-0.102443,-0.347842,0.256450
11.466667,-0.131515,-0.351112,0.244518
11.470833,-0.122093,-0.395810,0.277008
11.475000,-0.145374,-0.439483,0.269980
11.479167,-0.046022,-0.407513,0.291583
11.483333,-0.030089,-0.371785,0.291449
11.487500,-0.056530,-0.376123,0.279000
11.491667,-0.014721,-0.447980,0.308752
11.495833,-0.040349,-0.375750,0.306505
11.500000,-0.025065,-0.402506,0.323690
11.504167,0.014539,-0.442226,0.307545
11.508333,-0.025425,-0.342747,0.314784
11.512500,-0.032963,-0.346218,0.329190
11.516667,0.097029,-0.409269,0.336986
11.520833,0.093138,-0.407977,0.335918
11.525000,0.049798,-0.328856,0.368752
11.529167,0.105405,-0.397704,0.372961
11.533333,0.135909,-0.315526,0.383980
11.537500,0.082837,-0.315167,0.368320
11.541667,0.097700,-0.312031,0.382620
11.545833,0.188186,-0.342845,0.394363
11.550000,0.133515,-0.334763,0.387037
11.554167,0.255682,-0.357359,0.392403
11.558333,0.212152,-0.302219,0.419717
11.562500,0.271590,-0.316007,0.429211
11.566667,0.284757,-0.310830,0.413754
11.570833,0.314251,-0.214027,0.419098
11.575000,0.327353,-0.195606,0.425523
11.579167,0.273474,-0.239538,0.447831
11.583333,0.278683,-0.183980,0.430884
11.587500,0.285651,-0.156813,0.446487
11.591667,0.317576,-0.228366,0.458337
11.595833,0.318102,-0.242091,0.472906
11.600000,0.375383,-0.169878,0.471874
11.604167,0.370436,-0.191390,0.480288
11.608333,0.272019,-0.196154,0.472383
11.612500,0.252037,-0.219190,0.494481
11.616667,0.281425,-0.191838,0.503119
11.620833,0.309535,-0.161428,0.510608
11.625000,0.346089,-0.111462,0.503614
11.629167,0.232009,-0.166809,0.522868
11.633333,0.285171,-0.131325,0.532099
11.637500,0.340740,-0.100483,0.516117
11.641667,0.304538,-0.207918,0.536829
11.645833,0.240634,-0.202002,0.528559
11.650000,0.262392,-0.172812,0.527793
11.654167,0.301991,-0.202597,0.534506
11.658333,0.281684,-0.137871,0.535941
11.662500,0.212324,-0.178587,0.554815
11.666667,0.152388,-0.208378,0.567304
11.670833,0.212685,-0.197175,0.564461
11.675000,0.123639,-0.215711,0.581752
11.679167,0.165048,-0.200396,0.582802
11.683333,0.167360,-0.292207,0.587614
11.687500,0.089828,-0.219669,0.592512
11.691667,0.081763,-0.306207,0.603217
11.695833,0.027156,-0.339260,0.585071
11.700000,0.121287,-0.265818,0.615980
11.704167,0.130715,-0.318461,0.604752
11.708333,0.079634,-0.359192,0.630575
11.712500,0.006984,-0.384297,0.621638
11.716667,-0.005540,-0.355112,0.642903
11.720833,0.040332,-0.349227,0.617063
11.725000,-0.006377,-0.379213,0.622507
11.729167,-0.026828,-0.430963,0.636675
11.733333,0.023423,-0.453301,0.637466
11.737500,0.041777,-0.397395,0.639876
11.741667,-0.057074,-0.491921,0.657895
11.745833,-0.054578,-0.495402,0.663393
11.750000,0.048740,-0.455472,0.676565
11.754167,0.014145,-0.474596,0.660997
11.758333,0.014661,-0.496436,0.693962
11.762500,0.031820,-0.580001,0.683667
11.766667,0.004436,-0.552919,0.702539
11.770833,0.013020,-0.581946,0.685843
11.775000,-0.048240,-0.502305,0.712198
11.779167,0.032091,-0.532685,0.706425
11.783333,-0.012653,-0.614288,0.694666
11.787500,-0.008172,-0.566079,0.696883
11.791667,-0.010617,-0.513101,0.718948
11.795833,-0.043514,-0.572357,0.721346
11.800000,-0.005348,-0.598474,0.714891
11.804167,0.046412,-0.543061,0.729547
11.808333,0.006469,-0.604791,0.724667
11.812500,-0.002034,-0.586215,0.730160
11.816667,-0.020073,-0.552527,0.727980
11.820833,0.052458,-0.542461,0.733489
11.825000,0.036954,-0.573437,0.758663
11.829167,0.045581,-0.553035,0.754307
11.833333,0.083816,-0.517778,0.763250
11.837500,0.083153,-0.480309,0.765885
11.841667,0.099714,-0.503920,0.776178
11.845833,0.050264,-0.440558,0.760522
11.850000,0.060345,-0.528691,0.769544
11.854167,0.101922,-0.506285,0.766321
11.858333,0.096567,-0.419102,0.785813
11.862500,0.045425,-0.495723,0.801588
11.866667,0.092775,-0.443918,0.787353
11.870833,0.071095,-0.441781,0.811659
11.875000,0.119109,-0.346995,0.783605
11.879167,0.150282,-0.376761,0.786301
11.883333,0.159447,-0.412350,0.793161
11.887500,0.160122,-0.324155,0.816715
11.891667,0.130024,-0.333552,0.800886
11.895833,0.147884,-0.385096,0.807060
11.900000,0.174743,-0.301828,0.838950
11.904167,0.203989,-0.354319,0.823116
11.908333,0.150238,-0.292970,0.834651
11.912500,0.146331,-0.281102,0.843898
11.916667,0.120142,-0.221072,0.834781
11.920833,0.168159,-0.202049,0.849415
11.925000,0.144135,-0.268637,0.845338
11.929167,0.205176,-0.280382,0.839588
11.933333,0.171082,-0.207428,0.836339
11.937500,0.271424,-0.177862,0.843960
11.941667,0.232674,-0.196880,0.854062
11.945833,0.234449,-0.191537,0.844875
11.950000,0.192554,-0.176399,0.847776
11.954167,0.223979,-0.186583,0.870063
11.958333,0.259541,-0.260400,0.873494
11.962500,0.142793,-0.192342,0.863429
11.966667,0.228226,-0.273198,0.861004
11.970833,0.197316,-0.198037,0.875318
11.975000,0.250314,-0.253318,0.862374
11.979167,0.119196,-0.207178,0.888004
11.983333,0.153066,-0.246571,0.894777
11.987500,0.155090,-0.223653,0.898945
11.991667,0.108486,-0.269778,0.887987
11.995833,0.138252,-0.270174,0.894331
12.000000,0.087690,-0.322115,0.906609
12.004167,0.153823,-0.240689,0.911713
12.008333,0.148561,-0.285173,0.898141
12.012500,0.117804,-0.329650,0.902128
12.016667,0.099900,-0.279877,0.886927
12.020833,0.110769,-0.384358,0.889321
12.025000,0.074610,-0.331564,0.905428
12.029167,-0.040634,-0.364924,0.893296
12.033333,-0.013684,-0.334306,0.895659
12.037500,0.005685,-0.358031,0.899921
12.041667,0.036720,-0.428832,0.904535
12.045833,-0.016862,-0.403324,0.928822
12.050000,0.007000,-0.476749,0.917570
12.054167,-0.008080,-0.423572,0.926607
12.058333,-0.080582,-0.428844,0.918994
12.062500,-0.022536,-0.514258,0.912135
12.066667,-0.066103,-0.412322,0.939009
12.070833,-0.078674,-0.528295,0.921893
12.075000,-0.048382,-0.485386,0.933356
12.079167,-0.110626,-0.477432,0.927822
12.083333,-0.055629,-0.463965,0.922789
12.087500,-0.091749,-0.525380,0.944121
12.091667,-0.079898,-0.459672,0.936027
12.095833,-0.213729,-0.494193,0.950561
12.100000,-0.198970,-0.481472,0.928390
12.104167,-0.253326,-0.570805,0.949029
12.108333,-0.337927,-0.469711,0.952057
12.112500,-0.301615,-0.565947,0.954422
12.116667,-0.225034,-0.546905,0.954740
12.120833,-0.102831,-0.545494,0.926806
12.125000,-0.031501,-0.482954,0.949330
12.129167,0.210290,-0.533784,0.927614
12.133333,0.409423,-0.521023,0.934380
12.137500,0.679799,-0.474627,0.946801
12.141667,0.850966,-0.405883,0.954054
12.145833,0.983721,-0.445686,0.958320
12.150000,0.910743,-0.485758,0.950823
12.154167,0.706290,-0.379094,0.937978
12.158333,0.522571,-0.398991,0.943831
12.162500,0.182917,-0.416488,0.952667
12.166667,-0.091955,-0.312170,0.932384
12.170833,-0.245136,-0.390665,0.955600
12.175000,-0.398119,-0.351627,0.945765
12.179167,-0.366852,-0.343008,0.944811
12.183333,-0.331708,-0.300378,0.941367
12.187500,-0.294197,-0.278628,0.955584
12.191667,-0.212274,-0.226132,0.943822
12.195833,-0.178867,-0.246511,0.963285
12.200000,-0.158757,-0.268232,0.967616
12.204167,-0.164853,-0.159274,0.963494
12.208333,-0.141799,-0.143110,0.951036
12.212500,-0.118892,-0.156974,0.954657
12.216667,-0.179835,-0.201349,0.947064
12.220833,-0.170025,-0.205414,0.942341
12.225000,-0.070856,-0.118094,0.959076
12.229167,-0.101131,-0.060714,0.948429
12.233333,-0.148230,-0.099200,0.957209
12.237500,-0.104884,-0.116779,0.957236
12.241667,-0.093549,-0.029488,0.944165
12.245833,-0.063102,-0.058979,0.956115
12.250000,-0.059462,-0.123180,0.937353
12.254167,-0.089460,-0.004967,0.931883
12.258333,-0.081685,-0.072939,0.940351
12.262500,-0.011442,-0.024875,0.937858
12.266667,-0.068108,0.009754,0.933820
12.270833,0.032267,0.009743,0.937984
12.275000,0.042041,-0.029586,0.929167
12.279167,0.002636,-0.003388,0.951272
12.283333,0.058915,-0.041408,0.941776
12.287500,0.103747,-0.093711,0.952305
12.291667,0.049897,-0.067632,0.939219
12.295833,0.069978,-0.025238,0.932037
12.300000,0.078475,-0.072414,0.931007
12.304167,0.162520,-0.081872,0.920520
12.308333,0.134780,-0.033126,0.945791
12.312500,0.085133,-0.071475,0.942632
12.316667,0.183466,-0.061707,0.939499
12.320833,0.181219,-0.088064,0.928063
12.325000,0.208444,-0.139160,0.921973
12.329167,0.160182,-0.136955,0.919199
12.333333,0.160399,-0.172889,0.939609
12.337500,0.260346,-0.087583,0.908218
12.341667,0.176015,-0.130772,0.937038
12.345833,0.153096,-0.162097,0.917689
12.350000,0.189608,-0.133194,0.929052
12.354167,0.217125,-0.156639,0.916472
12.358333,0.197146,-0.200539,0.918187
12.362500,0.236311,-0.214760,0.895493
12.366667,0.208826,-0.163881,0.903434
12.370833,0.249524,-0.189141,0.901244
12.375000,0.152874,-0.180172,0.907506
12.379167,0.185226,-0.269379,0.897386
12.383333,0.152941,-0.232110,0.898292
12.387500,0.148776,-0.305462,0.893555
12.391667,0.161105,-0.233398,0.893244
12.395833,0.216857,-0.297397,0.896772
12.400000,0.202065,-0.229118,0.908425
12.404167,0.131193,-0.286266,0.886595
12.408333,0.170247,-0.230577,0.884608
12.412500,0.153897,-0.279520,0.899122
12.416667,0.154212,-0.289685,0.896263
12.420833,0.160011,-0.254031,0.891461
12.425000,0.083533,-0.243870,0.865108
12.429167,-0.009407,-0.298966,0.870812
12.433333,0.091632,-0.197503,0.872044
12.437500,0.002291,-0.223594,0.859759
12.441667,-0.005299,-0.224626,0.860339
12.445833,-0.025054,-0.239827,0.879246
12.450000,-0.038473,-0.246465,0.863239
12.454167,0.037422,-0.217936,0.869872
12.458333,-0.066218,-0.223670,0.859792
12.462500,-0.051534,-0.205646,0.838895
12.466667,-0.090857,-0.165771,0.861539
12.470833,-0.017512,-0.069022,0.857260
12.475000,-0.094097,-0.115898,0.845454
12.479167,-0.114415,-0.085336,0.844568
12.483333,-0.074585,-0.131304,0.822300
12.487500,-0.018575,-0.017141,0.830229
12.491667,-0.029398,-0.062765,0.837489
12.495833,-0.150574,-0.028379,0.840500
12.500000,-0.142132,0.006941,0.827147
12.504167,-0.065801,0.072885,0.835320
12.508333,-0.075506,0.031629,0.827633
12.512500,-0.068715,0.020233,0.810407
12.516667,-0.133800,0.118037,0.800936
12.520833,-0.057250,0.096733,0.803597
12.525000,-0.044900,0.128656,0.806280
12.529167,-0.039551,0.176136,0.809070
12.533333,-0.089074,0.155855,0.800463
12.537500,-0.024057,0.124768,0.787390
12.541667,-0.057114,0.190302,0.790154
12.545833,-0.088085,0.133171,0.768314
12.550000,-0.010832,0.198366,0.793910
12.554167,-0.054434,0.162139,0.786212
12.558333,0.012832,0.186294,0.781250
12.562500,-0.045722,0.188396,0.781520
12.566667,-0.049156,0.247472,0.778094
12.570833,-0.047755,0.234807,0.760646
12.575000,-0.033411,0.313887,0.740609
12.579167,-0.044558,0.206955,0.743164
12.583333,-0.046355,0.263942,0.746128
12.587500,0.001235,0.216549,0.737963
12.591667,0.057922,0.230641,0.730211
12.595833,0.037851,0.221054,0.727248
12.600000,-0.014616,0.214613,0.734457
12.604167,0.023078,0.215954,0.707966
12.608333,0.086985,0.245393,0.729425
12.612500,0.028311,0.228282,0.719186
12.616667,0.119531,0.276170,0.701686
12.620833,0.095544,0.282584,0.687104
12.625000,0.147227,0.192998,0.695292
12.629167,0.140058,0.257262,0.680782
12.633333,0.144964,0.208604,0.673790
12.637500,0.171844,0.237439,0.685715
12.641667,0.145573,0.248368,0.688808
12.645833,0.136833,0.212522,0.659636
12.650000,0.122553,0.194432,0.675630
12.654167,0.130971,0.134589,0.669914
12.658333,0.183409,0.201037,0.649871
12.662500,0.178424,0.093682,0.670702
12.666667,0.142289,0.089070,0.662145
12.670833,0.102027,0.069579,0.650115
12.675000,0.153193,0.131804,0.643061
12.679167,0.098411,0.147009,0.643165
12.683333,0.171833,0.077380,0.623878
12.687500,0.194238,0.056015,0.609248
12.691667,0.165646,0.022211,0.609755
12.695833,0.153023,0.048796,0.614252
12.700000,0.195135,0.110146,0.607473
12.704167,0.102288,-0.000630,0.604152
12.708333,0.088915,0.026426,0.599157
12.712500,0.115430,0.069183,0.591329
12.716667,0.135664,0.030938,0.587054
12.720833,0.105375,0.034532,0.577328
12.725000,0.164762,0.090167,0.569523
12.729167,0.153664,-0.020243,0.559197
12.733333,0.141028,0.073654,0.555462
12.737500,0.175516,0.093912,0.550053
12.741667,0.131107,0.106842,0.540385
12.745833,0.138982,0.009824,0.559944
12.750000,0.106186,0.057069,0.530658
12.754167,0.100780,0.017140,0.526725
12.758333,0.085537,0.122908,0.526283
12.762500,0.134834,0.107338,0.535903
12.766667,0.140027,0.158038,0.502835
12.770833,0.177780,0.081318,0.502940
12.775000,0.111018,0.110978,0.495329
12.779167,0.110978,0.092917,0.497337
12.783333,0.135676,0.155706,0.512449
12.787500,0.176382,0.136103,0.479619
12.791667,0.154340,0.238835,0.490969
12.795833,0.078934,0.270151,0.487827
12.800000,0.085985,0.177768,0.455092
12.804167,0.149846,0.263751,0.455555
12.808333,0.110746,0.213291,0.455830
12.812500,0.087648,0.265700,0.443082
12.816667,0.006718,0.322903,0.435425
12.820833,0.036524,0.287589,0.428668
12.825000,-0.020367,0.320478,0.435512
12.829167,-0.061080,0.297598,0.420656
12.833333,-0.044255,0.361181,0.417383
12.837500,-0.055461,0.441475,0.433182
12.841667,-0.067014,0.445761,0.398251
12.845833,-0.049921,0.431774,0.411733
12.850000,-0.035355,0.450904,0.410114
12.854167,-0.037783,0.420512,0.382276
12.858333,-0.075675,0.473805,0.396014
12.862500,-0.141089,0.444745,0.366860
12.866667,-0.121154,0.444355,0.380063
12.870833,-0.057026,0.536014,0.376088
12.875000,-0.127562,0.485628,0.374044
12.879167,-0.044583,0.523710,0.350096
12.883333,-0.130639,0.472542,0.355966
12.887500,-0.097476,0.469044,0.324784
12.891667,-0.144534,0.506727,0.347226
12.895833,-0.120916,0.494655,0.329091
12.900000,-0.058992,0.565990,0.331247
12.904167,-0.133574,0.486476,0.311531
12.908333,-0.086992,0.493412,0.295718
12.912500,-0.108423,0.510155,0.297933
12.916667,-0.147900,0.480352,0.283300
12.920833,-0.082793,0.498804,0.291019
12.925000,-0.235250,0.527775,0.262934
12.929167,-0.226392,0.452388,0.290609
12.933333,-0.200061,0.446662,0.271121
12.937500,-0.183353,0.504798,0.261212
12.941667,-0.085016,0.463774,0.258572
12.945833,-0.039904,0.401709,0.254495
12.950000,0.240412,0.484240,0.222131
12.954167,0.472252,0.444294,0.218887
12.958333,0.651211,0.402837,0.217974
12.962500,0.919324,0.357507,0.220548
12.966667,0.973269,0.370094,0.209823
12.970833,1.058993,0.391262,0.210167
12.975000,0.928058,0.374461,0.203288
12.979167,0.734290,0.319838,0.179143
12.983333,0.479628,0.309771,0.187871
12.987500,0.199776,0.259678,0.192491
12.991667,-0.066144,0.338560,0.181265
12.995833,-0.228183,0.284277,0.169894
13.000000,-0.264951,0.291838,0.168773
13.004167,-0.285605,0.232860,0.160276
13.008333,-0.213807,0.211717,0.138448
13.012500,-0.126433,0.241628,0.123009
13.016667,-0.051971,0.193524,0.133765
13.020833,-0.084562,0.220781,0.121137
13.025000,-0.065933,0.178543,0.103613
13.029167,-0.012211,0.225382,0.091667
13.033333,-0.035974,0.201305,0.109222
13.037500,0.033454,0.223608,0.083222
13.041667,-0.091134,0.265854,0.104536
13.045833,-0.097151,0.197868,0.083443
13.050000,0.018738,0.259646,0.072948
13.054167,-0.026901,0.201180,0.049347
13.058333,-0.048253,0.168829,0.043668
13.062500,-0.025565,0.226017,0.039756
13.066667,0.005436,0.255180,0.031965
13.070833,0.045056,0.241747,0.027274
13.075000,0.031440,0.245121,0.046021
13.079167,0.008789,0.303933,0.010029
13.083333,0.011930,0.242267,0.010139
13.087500,0.054587,0.306426,-0.003456
13.091667,-0.028869,0.291013,-0.001098
13.095833,-0.024424,0.319126,-0.008433
13.100000,0.019814,0.358233,-0.019686
13.104167,0.079665,0.267344,-0.012603
13.108333,-0.002542,0.383637,-0.013049
13.112500,0.014912,0.301937,-0.022831
13.116667,0.088231,0.344604,-0.038097
13.120833,0.107213,0.360521,-0.039330
13.125000,0.067087,0.368456,-0.064283
13.129167,0.076412,0.375043,-0.077435
13.133333,0.052664,0.378687,-0.056191
13.137500,0.053543,0.473803,-0.074696
13.141667,0.132772,0.399099,-0.068018
13.145833,0.099678,0.489337,-0.083885
13.150000,0.112501,0.532199,-0.110825
13.154167,0.099374,0.500438,-0.120957
13.158333,0.070995,0.505678,-0.122365
13.162500,0.076237,0.523839,-0.118821
13.166667,0.128320,0.508191,-0.115045
13.170833,0.185295,0.542861,-0.122570
13.175000,0.133066,0.605212,-0.143457
13.179167,0.156796,0.519260,-0.138692
13.183333,0.085991,0.549498,-0.166222
13.187500,0.105886,0.540931,-0.148897
13.191667,0.126374,0.560845,-0.181326
13.195833,0.149479,0.606485,-0.166491
13.200000,0.122874,0.629688,-0.188948
13.204167,0.089626,0.547010,-0.181370
13.208333,0.162182,0.571598,-0.194390
13.212500,0.092112,0.623058,-0.190139
13.216667,0.082142,0.526276,-0.226003
13.220833,0.136448,0.565003,-0.232869
13.225000,0.062805,0.587372,-0.209487
13.229167,0.086453,0.529365,-0.243415
13.233333,0.023662,0.496839,-0.243285
13.237500,0.078722,0.518498,-0.248157
13.241667,0.053246,0.465595,-0.266908
13.245833,-0.005247,0.449809,-0.245149
13.250000,0.030525,0.441096,-0.267162
13.254167,-0.017245,0.435797,-0.270615
13.258333,0.035195,0.400599,-0.280504
13.262500,-0.036360,0.394180,-0.282766
13.266667,0.030763,0.462562,-0.288837
13.270833,0.030017,0.459249,-0.295178
13.275000,0.014950,0.420005,-0.292243
13.279167,0.029364,0.345772,-0.309419
13.283333,-0.042923,0.326412,-0.330612
13.287500,-0.038981,0.306007,-0.329738
13.291667,-0.009004,0.317562,-0.346329
13.295833,-0.091915,0.331037,-0.324775
13.300000,-0.070899,0.302217,-0.353203
13.304167,-0.060699,0.323586,-0.338911
13.308333,-0.059965,0.249569,-0.348577
13.312500,-0.010639,0.220612,-0.364908
13.316667,-0.009720,0.186741,-0.369365
13.320833,0.035386,0.181505,-0.375483
13.325000,-0.055327,0.204516,-0.404153
13.329167,-0.056973,0.187431,-0.406743
13.333333,-0.023208,0.141549,-0.407986
13.337500,-0.001870,0.138417,-0.412424
13.341667,-0.026903,0.157853,-0.397928
13.345833,0.041949,0.219561,-0.407471
13.350000,0.028053,0.166256,-0.443700
