time,lead_ii,pulse_reference,respiration_belt
0.000000,-0.008956,0.008942,0.109266
0.004167,0.008125,0.018946,0.107713
0.008333,-0.004346,0.000150,0.103243
0.012500,-0.007836,0.005728,0.108121
0.016667,-0.013749,0.026643,0.113385
0.020833,0.017323,0.014384,0.117996
0.025000,0.004789,0.017947,0.126612
0.029167,-0.013248,0.013874,0.141474
0.033333,0.016073,0.011864,0.154275
0.037500,0.026806,0.020328,0.170862
0.041667,0.013630,0.009715,0.168989
0.045833,-0.016130,0.015363,0.178272
0.050000,0.008377,0.014620,0.167539
0.054167,0.005807,0.013388,0.168814
0.058333,-0.013723,0.006271,0.188259
0.062500,0.001951,0.016512,0.187058
0.066667,0.023708,0.013749,0.200117
0.070833,0.008761,0.000364,0.207087
0.075000,-0.008964,0.004587,0.195468
0.079167,0.003203,-0.004144,0.219428
0.083333,-0.000365,-0.010103,0.217628
0.087500,0.020171,-0.008090,0.230994
0.091667,0.009385,0.000340,0.225524
0.095833,0.008424,-0.018787,0.222878
0.100000,-0.007382,-0.024501,0.250971
0.104167,0.033163,-0.008194,0.244586
0.108333,0.020271,-0.009860,0.239193
0.112500,-0.008868,-0.019794,0.252665
0.116667,-0.010955,-0.019685,0.248639
0.120833,0.003381,0.000636,0.254953
0.125000,0.022249,-0.006634,0.268508
0.129167,-0.003230,-0.010223,0.295952
0.133333,0.010208,0.000250,0.282279
0.137500,0.012263,0.005114,0.300418
0.141667,0.009809,0.022358,0.288305
0.145833,0.007380,0.002887,0.298913
0.150000,-0.006151,0.026946,0.301951
0.154167,0.028339,0.020096,0.321745
0.158333,-0.007340,0.018603,0.303344
0.162500,-0.003081,0.027358,0.326741
0.166667,0.016809,0.019135,0.316584
0.170833,0.043073,0.041973,0.325838
0.175000,0.009105,0.020607,0.339166
0.179167,-0.001096,0.022050,0.334276
0.183333,0.006652,0.038959,0.341612
0.187500,0.006746,0.035974,0.350231
0.191667,0.022429,0.032627,0.378827
0.195833,-0.001852,0.029751,0.356002
0.200000,0.024026,0.020392,0.363289
0.204167,0.017940,0.013330,0.389340
0.208333,0.016393,0.025014,0.373779
0.212500,-0.003610,0.022597,0.377286
0.216667,0.028448,0.030986,0.388172
0.220833,0.013434,0.021780,0.415840
0.225000,0.000044,0.003790,0.424542
0.229167,0.008784,0.011429,0.421859
0.233333,0.020794,0.014842,0.404902
0.237500,0.013141,-0.002013,0.418902
0.241667,0.011161,0.016683,0.412661
0.245833,-0.000230,-0.006444,0.443583
0.250000,0.034429,0.013761,0.426852
0.254167,0.043324,-0.007507,0.435419
0.258333,0.022673,0.016194,0.437032
0.262500,0.002182,-0.006419,0.461786
0.266667,0.034767,0.001732,0.471778
0.270833,0.033771,0.026178,0.481761
0.275000,0.015947,0.007773,0.466053
0.279167,-0.000866,0.019161,0.472456
0.283333,0.019666,0.017441,0.487909
0.287500,0.011695,0.027814,0.500329
0.291667,0.034845,0.028169,0.496328
0.295833,-0.000055,0.042587,0.503540
0.300000,0.016471,0.027353,0.509204
0.304167,0.017348,0.055320,0.521543
0.308333,0.003862,0.045423,0.513120
0.312500,0.018737,0.058514,0.526567
0.316667,0.022975,0.061996,0.523156
0.320833,0.034018,0.036955,0.539180
0.325000,0.005849,0.047968,0.524060
0.329167,0.012361,0.048761,0.542240
0.333333,0.027113,0.038450,0.531905
0.337500,0.049866,0.056107,0.540407
0.341667,0.041201,0.035981,0.556475
0.345833,0.014930,0.027092,0.553670
0.350000,0.027407,0.033327,0.548417
0.354167,0.038440,0.037134,0.551946
0.358333,0.023247,0.040898,0.581439
0.362500,-0.004204,0.028049,0.563355
0.366667,0.030341,0.016166,0.596510
0.370833,0.042555,0.014306,0.596539
0.375000,0.044590,0.005581,0.586349
0.379167,0.021444,0.027029,0.610478
0.383333,0.010675,0.004163,0.615005
0.387500,0.023020,0.014924,0.593331
0.391667,0.031644,0.011115,0.605116
0.395833,0.032897,0.005919,0.602439
0.400000,0.019998,0.022912,0.619723
0.404167,0.055524,0.010583,0.618776
0.408333,0.021808,0.015837,0.624940
0.412500,0.025417,0.027621,0.622584
0.416667,0.033385,0.024655,0.643053
0.420833,0.022326,0.038649,0.652241
0.425000,0.019180,0.030563,0.641674
0.429167,0.022513,0.027773,0.664467
0.433333,0.027886,0.045251,0.673119
0.437500,0.045540,0.034254,0.664176
0.441667,0.017673,0.048549,0.649976
0.445833,0.025625,0.057954,0.656393
0.450000,0.021731,0.043674,0.675326
0.454167,0.025049,0.056929,0.669147
0.458333,0.031758,0.073887,0.695993
0.462500,0.013069,0.051711,0.691238
0.466667,0.017306,0.052473,0.705638
0.470833,0.054957,0.065704,0.706065
0.475000,0.047926,0.071562,0.714874
0.479167,0.028773,0.057658,0.719179
0.483333,0.011177,0.067769,0.693872
0.487500,0.040522,0.039673,0.727649
0.491667,0.045441,0.039920,0.727363
0.495833,0.022420,0.035658,0.707771
0.500000,0.039882,0.031585,0.713824
0.504167,0.049239,0.040412,0.714933
0.508333,0.012345,0.027010,0.746435
0.512500,0.020375,0.039300,0.727527
0.516667,0.032398,0.037680,0.738281
0.520833,0.031493,0.037975,0.735731
0.525000,0.045477,0.028358,0.747854
0.529167,0.003946,0.014553,0.741924
0.533333,0.017003,0.012114,0.760506
0.537500,0.065727,0.031984,0.781234
0.541667,0.038548,0.024786,0.784754
0.545833,0.030404,0.026003,0.787155
0.550000,0.047847,0.039851,0.779599
0.554167,0.063409,0.023492,0.791513
0.558333,0.054165,0.026370,0.766718
0.562500,0.005101,0.036445,0.778054
0.566667,0.022018,0.042468,0.797838
0.570833,0.051328,0.053138,0.805179
0.575000,0.031484,0.041075,0.786113
0.579167,0.020581,0.045028,0.803649
0.583333,0.037406,0.059298,0.810944
0.587500,0.030309,0.063186,0.819376
0.591667,0.018921,0.072108,0.802309
0.595833,0.023184,0.078196,0.828880
0.600000,0.027694,0.074841,0.830079
0.604167,0.045760,0.075007,0.822171
0.608333,0.046305,0.077792,0.845426
0.612500,0.022006,0.063626,0.832856
0.616667,0.031170,0.083954,0.822814
0.620833,0.053382,0.076840,0.844807
0.625000,0.032922,0.075004,0.851984
0.629167,0.045219,0.064502,0.838940
0.633333,0.030266,0.057973,0.860839
0.637500,0.048399,0.047053,0.847345
0.641667,0.028566,0.053148,0.858549
0.645833,0.034300,0.042800,0.851952
0.650000,0.031808,0.045893,0.871025
0.654167,0.053796,0.043079,0.881828
0.658333,0.045216,0.054386,0.857977
0.662500,0.007764,0.042221,0.881404
0.666667,0.025055,0.046837,0.883272
0.670833,0.038591,0.052513,0.889990
0.675000,0.053052,0.034348,0.885857
0.679167,0.013770,0.034553,0.871505
0.683333,0.053187,0.048500,0.875097
0.687500,0.040415,0.050491,0.897414
0.691667,0.046130,0.035446,0.899329
0.695833,0.042036,0.030763,0.883859
0.700000,0.050734,0.039422,0.907682
0.704167,0.065835,0.057503,0.886346
0.708333,0.025494,0.055663,0.918503
0.712500,0.013203,0.048780,0.921473
0.716667,0.051583,0.059982,0.913842
0.720833,0.042606,0.072522,0.907240
0.725000,0.026648,0.072436,0.904666
0.729167,0.023996,0.083042,0.929426
0.733333,0.026324,0.077599,0.936313
0.737500,0.069930,0.085569,0.940533
0.741667,0.048301,0.093596,0.931132
0.745833,0.039716,0.083327,0.921519
0.750000,0.046151,0.083748,0.932962
0.754167,0.065438,0.082401,0.923546
0.758333,0.051594,0.084114,0.942221
0.762500,0.026820,0.090897,0.945310
0.766667,0.054168,0.085711,0.929381
0.770833,0.044819,0.081594,0.930027
0.775000,0.032065,0.064084,0.964232
0.779167,0.017571,0.066817,0.950816
0.783333,0.049178,0.060714,0.965839
0.787500,0.036636,0.056682,0.943484
0.791667,0.046977,0.073545,0.955304
0.795833,0.051199,0.052244,0.966381
0.800000,0.059322,0.045542,0.958621
0.804167,0.057611,0.066596,0.955372
0.808333,0.059992,0.047794,0.955415
0.812500,0.015314,0.064566,0.970882
0.816667,0.046315,0.054732,0.964689
0.820833,0.068053,0.049017,0.961202
0.825000,0.035551,0.064343,0.990747
0.829167,0.052870,0.037623,0.975337
0.833333,0.031233,0.062622,0.992462
0.837500,0.072795,0.054337,0.988919
0.841667,0.044803,0.055612,0.976893
0.845833,0.051101,0.053892,0.996291
0.850000,0.065752,0.065284,0.996645
0.854167,0.053801,0.082988,0.970639
0.858333,0.044857,0.075469,0.984623
0.862500,0.031887,0.073316,0.993359
0.866667,0.030518,0.072467,0.984555
0.870833,0.046177,0.071144,1.002229
0.875000,0.030562,0.073800,0.978817
0.879167,0.018408,0.077849,0.999281
0.883333,0.064453,0.089988,0.982046
0.887500,0.061080,0.078911,0.990696
0.891667,0.050015,0.104074,1.004099
0.895833,0.024524,0.095772,0.995788
0.900000,0.064726,0.104907,0.991576
0.904167,0.042539,0.087093,1.010917
0.908333,0.060979,0.092909,1.002054
0.912500,0.026487,0.093592,0.998196
0.916667,0.030235,0.071541,1.008108
0.920833,0.057474,0.088924,1.003319
0.925000,0.043150,0.086295,0.997119
0.929167,0.021584,0.074008,1.004717
0.933333,0.042954,0.061064,1.025485
0.937500,0.045435,0.078449,1.028527
0.941667,0.064163,0.073517,1.032629
0.945833,0.039566,0.069368,1.033737
0.950000,0.047001,0.058126,1.032529
0.954167,0.080484,0.069787,1.031642
0.958333,0.042954,0.061336,1.006656
0.962500,0.040150,0.062839,1.016787
0.966667,0.051613,0.063747,1.008359
0.970833,0.052879,0.056765,1.010621
0.975000,0.051573,0.064158,1.018943
0.979167,0.058422,0.062924,1.015441
0.983333,0.046234,0.064747,1.011581
0.987500,0.067158,0.069054,1.040779
0.991667,0.054989,0.069260,1.041949
0.995833,0.034946,0.084951,1.038299
1.000000,0.055121,0.077862,1.044208
1.004167,0.087414,0.098103,1.013869
1.008333,0.056096,0.098831,1.026243
1.012500,0.052715,0.085552,1.013931
1.016667,0.096956,0.110613,1.043573
1.020833,0.092326,0.094642,1.046605
1.025000,0.089231,0.101638,1.031933
1.029167,0.092647,0.112629,1.043665
1.033333,0.124945,0.104714,1.036216
1.037500,0.135238,0.116407,1.015815
1.041667,0.128008,0.119083,1.039470
1.045833,0.122199,0.104837,1.026004
1.050000,0.124283,0.106392,1.038500
1.054167,0.151951,0.097734,1.022014
1.058333,0.145471,0.100154,1.045472
1.062500,0.107210,0.100962,1.034157
1.066667,0.130606,0.105017,1.033044
1.070833,0.112600,0.078601,1.042483
1.075000,0.096618,0.071560,1.023338
1.079167,0.093891,0.083792,1.028442
1.083333,0.105584,0.071893,1.036017
1.087500,0.087622,0.078465,1.045679
1.091667,0.101997,0.073368,1.018350
1.095833,0.083651,0.070109,1.022405
1.100000,0.059076,0.080810,1.032958
1.104167,0.096811,0.055033,1.017305
1.108333,0.060149,0.055990,1.046587
1.112500,0.057842,0.059713,1.034192
1.116667,0.061379,0.058423,1.028385
1.120833,0.079679,0.072167,1.012451
1.125000,0.073224,0.078366,1.016795
1.129167,0.039007,0.092203,1.041195
1.133333,0.041267,0.088767,1.019282
1.137500,0.056375,0.116597,1.042945
1.141667,0.059639,0.106650,1.026111
1.145833,0.046835,0.131287,1.019208
1.150000,0.032414,0.109931,1.020432
1.154167,0.070991,0.138856,1.016171
1.158333,0.035049,0.146588,1.022357
1.162500,0.035148,0.131916,1.034110
1.166667,0.059964,0.148965,1.039266
1.170833,0.057671,0.137231,1.019090
1.175000,0.062319,0.148822,1.008136
1.179167,0.030874,0.162647,1.011924
1.183333,-0.005241,0.146792,1.013344
1.187500,-0.031551,0.140669,1.002527
1.191667,-0.082703,0.146583,1.031721
1.195833,-0.126970,0.163122,1.022342
1.200000,-0.065470,0.142434,1.012057
1.204167,-0.018090,0.141442,1.021278
1.208333,0.099336,0.129672,1.021440
1.212500,0.233894,0.152018,1.010180
1.216667,0.452742,0.128573,1.004091
1.220833,0.717947,0.136443,0.998082
1.225000,0.941266,0.132472,0.994358
1.229167,1.098314,0.134312,0.990324
1.233333,1.188520,0.123624,1.000739
1.237500,1.113757,0.135139,1.010910
1.241667,0.927272,0.118385,0.999091
1.245833,0.652659,0.122340,0.983895
1.250000,0.390966,0.115516,0.980835
1.254167,0.158271,0.111832,1.010713
1.258333,-0.010822,0.110297,0.992672
1.262500,-0.155792,0.138527,1.005870
1.266667,-0.144021,0.131332,0.986422
1.270833,-0.095384,0.139642,0.990205
1.275000,-0.036745,0.126574,0.985182
1.279167,-0.002763,0.141429,0.984213
1.283333,0.027199,0.165125,0.991412
1.287500,0.073711,0.157064,0.971544
1.291667,0.052942,0.168706,0.973015
1.295833,0.045471,0.173793,0.984313
1.300000,0.052441,0.201272,0.987757
1.304167,0.099163,0.221375,0.989945
1.308333,0.071198,0.221213,0.986540
1.312500,0.051125,0.239946,0.957712
1.316667,0.086432,0.253664,0.985837
1.320833,0.098463,0.266576,0.961506
1.325000,0.081967,0.302012,0.964060
1.329167,0.070485,0.322307,0.962312
1.333333,0.088833,0.309947,0.969598
1.337500,0.121218,0.342516,0.975031
1.341667,0.137786,0.351818,0.957353
1.345833,0.114266,0.362471,0.937884
1.350000,0.154610,0.351271,0.952735
1.354167,0.153561,0.364504,0.951196
1.358333,0.151633,0.363840,0.944330
1.362500,0.160609,0.369383,0.941397
1.366667,0.159463,0.340169,0.933295
1.370833,0.197316,0.322545,0.934249
1.375000,0.204363,0.304110,0.925652
1.379167,0.213992,0.300325,0.931849
1.383333,0.234788,0.268431,0.933866
1.387500,0.255861,0.258776,0.921705
1.391667,0.269327,0.243355,0.926737
1.395833,0.256389,0.207002,0.923446
1.400000,0.261977,0.202759,0.918931
1.404167,0.282712,0.186720,0.902715
1.408333,0.283656,0.188565,0.910162
1.412500,0.285935,0.175567,0.905972
1.416667,0.333357,0.160392,0.925523
1.420833,0.326912,0.145891,0.901723
1.425000,0.322406,0.157042,0.912840
1.429167,0.315313,0.142406,0.911028
1.433333,0.364590,0.134160,0.901327
1.437500,0.378315,0.127898,0.882758
1.441667,0.341401,0.147009,0.900123
1.445833,0.346216,0.156653,0.896329
1.450000,0.345456,0.155285,0.868608
1.454167,0.366277,0.136194,0.866732
1.458333,0.376292,0.156539,0.866762
1.462500,0.348681,0.130739,0.873361
1.466667,0.338365,0.141087,0.874413
1.470833,0.347052,0.150008,0.881645
1.475000,0.328454,0.151381,0.867316
1.479167,0.323206,0.128649,0.861515
1.483333,0.331965,0.126019,0.864496
1.487500,0.315463,0.132427,0.849661
1.491667,0.327581,0.132744,0.851115
1.495833,0.306699,0.115554,0.852896
1.500000,0.280766,0.107426,0.856817
1.504167,0.285173,0.113192,0.824702
1.508333,0.251601,0.124650,0.840921
1.512500,0.228931,0.108749,0.850995
1.516667,0.223458,0.108062,0.826564
1.520833,0.238171,0.111208,0.821061
1.525000,0.227365,0.110521,0.807440
1.529167,0.203583,0.088032,0.806769
1.533333,0.188363,0.114233,0.815953
1.537500,0.207045,0.106430,0.821799
1.541667,0.168104,0.110057,0.810568
1.545833,0.138757,0.100972,0.803850
1.550000,0.152630,0.108725,0.799238
1.554167,0.155963,0.106291,0.794633
1.558333,0.134965,0.122395,0.803504
1.562500,0.103314,0.116327,0.796728
1.566667,0.119424,0.121200,0.798724
1.570833,0.114157,0.125062,0.791791
1.575000,0.092709,0.136867,0.764847
1.579167,0.074831,0.112182,0.780353
1.583333,0.102623,0.117163,0.765100
1.587500,0.082800,0.132474,0.750280
1.591667,0.079003,0.121806,0.768227
1.595833,0.039752,0.134569,0.774061
1.600000,0.070474,0.152418,0.752744
1.604167,0.058603,0.130071,0.763649
1.608333,0.063538,0.139274,0.745502
1.612500,0.032368,0.143802,0.741897
1.616667,0.065227,0.131946,0.740999
1.620833,0.071923,0.140353,0.718068
1.625000,0.036647,0.127323,0.744465
1.629167,0.053527,0.127392,0.733763
1.633333,0.042078,0.138556,0.734462
1.637500,0.050524,0.133075,0.720166
1.641667,0.031522,0.120210,0.714253
1.645833,0.010582,0.111314,0.714546
1.650000,0.056490,0.118487,0.690809
1.654167,0.037743,0.115910,0.699104
1.658333,0.040326,0.112468,0.684713
1.662500,0.041416,0.110744,0.690906
1.666667,0.053926,0.098523,0.694090
1.670833,0.036171,0.090555,0.681284
1.675000,0.053967,0.093762,0.663526
1.679167,0.021316,0.083694,0.684470
1.683333,0.039200,0.091111,0.660466
1.687500,0.042778,0.112374,0.667662
1.691667,0.030364,0.097484,0.672657
1.695833,0.007914,0.106745,0.649348
1.700000,0.016959,0.101289,0.642790
1.704167,0.038046,0.122405,0.633686
1.708333,0.017767,0.122912,0.632754
1.712500,0.014971,0.109652,0.632481
1.716667,0.039271,0.123640,0.613942
1.720833,0.045240,0.109571,0.633379
1.725000,0.024275,0.115648,0.610752
1.729167,0.023057,0.144304,0.629980
1.733333,0.038959,0.122518,0.601417
1.737500,0.056099,0.130965,0.617493
1.741667,0.050760,0.131302,0.590266
1.745833,0.008977,0.137907,0.597380
1.750000,0.030533,0.128444,0.572971
1.754167,0.029569,0.141835,0.579326
1.758333,0.040634,0.137101,0.564029
1.762500,0.012969,0.129540,0.568242
1.766667,0.018506,0.137708,0.562555
1.770833,0.049596,0.139695,0.567184
1.775000,0.022165,0.131350,0.547283
1.779167,0.006005,0.133736,0.553133
1.783333,0.037660,0.127083,0.557738
1.787500,0.030916,0.115451,0.528448
1.791667,0.020384,0.126865,0.542880
1.795833,0.007960,0.123142,0.548956
1.800000,0.010887,0.094394,0.534916
1.804167,0.025804,0.098908,0.511457
1.808333,0.012247,0.108958,0.513227
1.812500,0.010647,0.111154,0.523434
1.816667,0.030212,0.093777,0.494817
1.820833,0.034307,0.096452,0.516227
1.825000,0.047868,0.112523,0.501531
1.829167,0.025681,0.098916,0.480577
1.833333,0.037293,0.103231,0.490112
1.837500,0.032069,0.092396,0.496362
1.841667,0.035289,0.105538,0.468277
1.845833,0.013329,0.108941,0.481195
1.850000,0.044373,0.103624,0.459955
1.854167,0.036541,0.122643,0.442693
1.858333,0.040081,0.123058,0.452235
1.862500,0.005171,0.123952,0.433452
1.866667,0.021012,0.131641,0.442271
1.870833,0.062165,0.124513,0.452596
1.875000,0.026483,0.130297,0.440443
1.879167,0.008307,0.122274,0.430651
1.883333,0.055382,0.148583,0.428445
1.887500,0.071474,0.153894,0.417339
1.891667,0.039609,0.137470,0.415692
1.895833,0.022664,0.146557,0.393148
1.900000,0.046406,0.150835,0.407210
1.904167,0.078254,0.136405,0.374518
1.908333,0.054744,0.127024,0.394471
1.912500,0.074621,0.134937,0.385268
1.916667,0.093947,0.136295,0.387525
1.920833,0.110147,0.129790,0.356162
1.925000,0.096935,0.123905,0.355606
1.929167,0.075859,0.126147,0.345961
1.933333,0.118904,0.113018,0.347825
1.937500,0.132975,0.108589,0.336466
1.941667,0.107537,0.095345,0.340881
1.945833,0.071830,0.119167,0.325473
1.950000,0.088574,0.096675,0.340197
1.954167,0.094954,0.109963,0.320275
1.958333,0.084926,0.098693,0.317228
1.962500,0.078431,0.101921,0.299973
1.966667,0.089253,0.098197,0.322045
1.970833,0.058502,0.095211,0.289595
1.975000,0.048498,0.108011,0.279598
1.979167,0.034686,0.102458,0.276954
1.983333,0.062879,0.109699,0.265822
1.987500,0.055644,0.111611,0.272954
1.991667,0.033847,0.132721,0.272603
1.995833,0.005068,0.143726,0.263523
2.000000,0.033496,0.151516,0.256291
2.004167,0.039862,0.143429,0.263352
2.008333,0.019277,0.160644,0.262007
2.012500,0.025263,0.164331,0.244031
2.016667,0.018455,0.169807,0.249620
2.020833,0.048838,0.169295,0.219499
2.025000,0.003762,0.173714,0.216279
2.029167,-0.005121,0.184425,0.204023
2.033333,0.020886,0.170564,0.197348
2.037500,0.040086,0.188900,0.196137
2.041667,0.008709,0.187076,0.216695
2.045833,-0.005489,0.188934,0.208748
2.050000,-0.002768,0.179531,0.174609
2.054167,0.019590,0.192040,0.167770
2.058333,0.024340,0.188949,0.165996
2.062500,0.006259,0.177931,0.181063
2.066667,-0.024898,0.168093,0.159596
2.070833,-0.040012,0.167331,0.153185
2.075000,-0.094618,0.176780,0.164155
2.079167,-0.142734,0.169446,0.143364
2.083333,-0.133343,0.142877,0.135813
2.087500,-0.063451,0.155708,0.123738
2.091667,-0.003728,0.142936,0.118606
2.095833,0.137751,0.157772,0.124563
2.100000,0.336683,0.157051,0.129561
2.104167,0.606695,0.130979,0.117214
2.108333,0.803319,0.136578,0.087895
2.112500,0.986561,0.153804,0.115516
2.116667,1.126852,0.134308,0.102023
2.120833,1.100089,0.158917,0.080517
2.125000,0.928810,0.162460,0.090201
2.129167,0.714042,0.162318,0.076877
2.133333,0.452841,0.157853,0.084268
2.137500,0.189391,0.167651,0.052000
2.141667,-0.003650,0.193973,0.053992
2.145833,-0.175517,0.187337,0.034439
2.150000,-0.205944,0.189622,0.040056
2.154167,-0.164922,0.221075,0.025285
2.158333,-0.124098,0.222433,0.038148
2.162500,-0.080410,0.236505,0.028700
2.166667,0.006760,0.261283,0.033632
2.170833,0.035738,0.276415,-0.001226
2.175000,0.028897,0.307894,0.017719
2.179167,0.015862,0.319920,0.005268
2.183333,0.028901,0.328200,0.007168
2.187500,0.050608,0.343152,-0.021728
2.191667,0.021382,0.352293,-0.020246
2.195833,0.004538,0.361618,-0.010038
2.200000,0.034079,0.393231,-0.028018
2.204167,0.039798,0.386863,-0.050258
2.208333,0.039234,0.370455,-0.033979
2.212500,0.038058,0.380437,-0.031042
2.216667,0.051169,0.366110,-0.039595
2.220833,0.063747,0.363331,-0.046693
2.225000,0.088493,0.332274,-0.055645
2.229167,0.068851,0.317368,-0.085000
2.233333,0.105294,0.301575,-0.079713
2.237500,0.120021,0.275950,-0.075118
2.241667,0.094470,0.256417,-0.097864
2.245833,0.107587,0.233008,-0.105900
2.250000,0.136093,0.224681,-0.112391
2.254167,0.133197,0.216108,-0.105630
2.258333,0.147657,0.194506,-0.118012
2.262500,0.159736,0.175821,-0.102662
2.266667,0.188557,0.167312,-0.125070
2.270833,0.194763,0.178584,-0.143528
2.275000,0.205162,0.152874,-0.130943
2.279167,0.197652,0.144745,-0.157782
2.283333,0.212404,0.149274,-0.140983
2.287500,0.250383,0.162276,-0.165472
2.291667,0.265904,0.140743,-0.165379
2.295833,0.233762,0.162438,-0.164057
2.300000,0.250838,0.160164,-0.185338
2.304167,0.282309,0.140791,-0.175895
2.308333,0.285377,0.151627,-0.191656
2.312500,0.273708,0.151328,-0.184532
2.316667,0.310435,0.165119,-0.190461
2.320833,0.336547,0.147762,-0.186156
2.325000,0.306806,0.155574,-0.203947
2.329167,0.295851,0.146137,-0.213616
2.333333,0.299878,0.154164,-0.218900
2.337500,0.335309,0.134747,-0.225265
2.341667,0.312190,0.156129,-0.235216
2.345833,0.290733,0.151128,-0.227928
2.350000,0.294141,0.139230,-0.232231
2.354167,0.297545,0.133120,-0.263767
2.358333,0.301418,0.134960,-0.270590
2.362500,0.267836,0.112981,-0.259720
2.366667,0.287988,0.117706,-0.279966
2.370833,0.281805,0.112092,-0.277823
2.375000,0.279370,0.106303,-0.279150
2.379167,0.256335,0.101442,-0.296588
2.383333,0.227749,0.117107,-0.303180
2.387500,0.237895,0.101460,-0.293453
2.391667,0.215547,0.101469,-0.309043
2.395833,0.186087,0.093892,-0.324023
2.400000,0.180516,0.094825,-0.300269
2.404167,0.206245,0.118325,-0.309553
2.408333,0.157492,0.123586,-0.310564
2.412500,0.147071,0.117519,-0.318683
2.416667,0.127589,0.124696,-0.350402
2.420833,0.144548,0.111954,-0.353679
2.425000,0.124508,0.114175,-0.356219
2.429167,0.106271,0.116446,-0.359487
2.433333,0.097725,0.126780,-0.366004
2.437500,0.099161,0.144939,-0.377991
2.441667,0.095780,0.143398,-0.360188
2.445833,0.042638,0.137882,-0.357455
2.450000,0.069680,0.129798,-0.388365
2.454167,0.061237,0.134289,-0.376430
2.458333,0.055044,0.138631,-0.389679
2.462500,0.030321,0.126870,-0.413553
2.466667,0.041741,0.150656,-0.398737
2.470833,0.038533,0.137678,-0.396715
2.475000,0.028638,0.141756,-0.420081
2.479167,-0.015248,0.142622,-0.413529
2.483333,0.003911,0.141122,-0.422384
2.487500,0.017193,0.136268,-0.435102
2.491667,0.011311,0.139627,-0.424250
2.495833,-0.015067,0.108021,-0.432395
2.500000,0.005345,0.115073,-0.455263
2.504167,0.011559,0.126762,-0.434872
2.508333,0.000550,0.120972,-0.458379
2.512500,-0.006592,0.100187,-0.466837
2.516667,-0.028912,0.116222,-0.469217
2.520833,0.011015,0.114444,-0.465276
2.525000,-0.000879,0.104130,-0.464848
2.529167,-0.023005,0.109274,-0.471365
2.533333,-0.010854,0.091066,-0.490569
2.537500,-0.015628,0.082954,-0.494912
2.541667,-0.029572,0.089498,-0.485749
2.545833,-0.026926,0.107629,-0.518803
2.550000,-0.030493,0.098073,-0.498837
2.554167,-0.008065,0.093790,-0.511899
2.558333,-0.021878,0.093329,-0.515474
2.562500,-0.042543,0.113075,-0.541181
2.566667,-0.035272,0.100089,-0.517943
2.570833,-0.014533,0.124999,-0.532299
2.575000,-0.009037,0.127144,-0.554947
2.579167,-0.025896,0.123709,-0.550605
2.583333,-0.007219,0.130684,-0.558292
2.587500,-0.024155,0.133602,-0.550325
2.591667,-0.034707,0.135373,-0.548488
2.595833,-0.052165,0.133629,-0.563386
2.600000,-0.018504,0.132425,-0.564931
2.604167,0.008089,0.132519,-0.565653
2.608333,-0.014808,0.119539,-0.577339
2.612500,-0.047234,0.132657,-0.576693
2.616667,-0.030005,0.121092,-0.599180
2.620833,-0.012224,0.130096,-0.599472
2.625000,-0.039928,0.133248,-0.598468
2.629167,-0.036449,0.136657,-0.603623
2.633333,-0.007267,0.127793,-0.597050
2.637500,-0.012239,0.128654,-0.618227
2.641667,-0.027144,0.116291,-0.610940
2.645833,-0.053410,0.093951,-0.623615
2.650000,-0.018886,0.097138,-0.617145
2.654167,-0.014256,0.095255,-0.627338
2.658333,-0.005556,0.099397,-0.640161
2.662500,-0.043666,0.082655,-0.650627
2.666667,-0.039266,0.079377,-0.646841
2.670833,0.002947,0.095209,-0.661272
2.675000,-0.024768,0.078668,-0.652518
2.679167,-0.049406,0.078566,-0.652445
2.683333,-0.038784,0.092201,-0.647497
2.687500,-0.022630,0.089617,-0.652354
2.691667,-0.025322,0.093613,-0.688025
2.695833,-0.028748,0.102931,-0.665851
2.700000,-0.008684,0.109374,-0.665736
2.704167,-0.028137,0.102438,-0.671865
2.708333,-0.024957,0.112289,-0.697274
2.712500,-0.031151,0.093199,-0.707864
2.716667,-0.025090,0.096953,-0.693750
2.720833,0.001337,0.099007,-0.718360
2.725000,-0.028262,0.131175,-0.692753
2.729167,-0.027141,0.132430,-0.703229
2.733333,-0.035261,0.117167,-0.729582
2.737500,-0.034560,0.117518,-0.713118
2.741667,-0.010378,0.121906,-0.706762
2.745833,-0.035368,0.112567,-0.740123
2.750000,-0.043709,0.136992,-0.741254
2.754167,-0.031596,0.119942,-0.748463
2.758333,-0.040529,0.110296,-0.731615
2.762500,-0.043827,0.136667,-0.744622
2.766667,-0.014919,0.123154,-0.734366
2.770833,-0.000367,0.127228,-0.746164
2.775000,-0.020772,0.118896,-0.742741
2.779167,-0.021652,0.104190,-0.765056
2.783333,-0.001811,0.099647,-0.765418
2.787500,0.017530,0.111370,-0.753252
2.791667,0.000035,0.109320,-0.759142
2.795833,-0.018402,0.086967,-0.762812
2.800000,0.028863,0.078880,-0.773088
2.804167,0.021414,0.095615,-0.776972
2.808333,0.031626,0.078071,-0.791385
2.812500,0.040141,0.073864,-0.780413
2.816667,0.053795,0.079354,-0.793189
2.820833,0.074615,0.082100,-0.788192
2.825000,0.042366,0.080113,-0.799570
2.829167,0.026934,0.071804,-0.799973
2.833333,0.061564,0.087310,-0.794288
2.837500,0.063352,0.074367,-0.813237
2.841667,0.047598,0.098550,-0.826359
2.845833,0.035749,0.104281,-0.832104
2.850000,0.013945,0.099340,-0.819383
2.854167,0.022949,0.090099,-0.835971
2.858333,0.020208,0.091703,-0.840284
2.862500,-0.014464,0.110940,-0.824888
2.866667,-0.001639,0.109180,-0.827394
2.870833,0.012523,0.138075,-0.834149
2.875000,-0.010334,0.115599,-0.826180
2.879167,-0.013110,0.144801,-0.844477
2.883333,-0.033766,0.147339,-0.845300
2.887500,-0.033391,0.129334,-0.840415
2.891667,-0.022056,0.147312,-0.856231
2.895833,-0.036171,0.151717,-0.839411
2.900000,-0.027378,0.147767,-0.863138
2.904167,-0.004633,0.153591,-0.875613
2.908333,-0.048457,0.137138,-0.865232
2.912500,-0.063241,0.144167,-0.881936
2.916667,-0.017749,0.145192,-0.873551
2.920833,-0.020629,0.137480,-0.885508
2.925000,-0.048416,0.125383,-0.874092
2.929167,-0.059338,0.129092,-0.881805
2.933333,-0.030450,0.132976,-0.871396
2.937500,-0.020170,0.123887,-0.881551
2.941667,-0.022040,0.142482,-0.899487
2.945833,-0.060138,0.138838,-0.893102
2.950000,-0.051956,0.110456,-0.905749
2.954167,-0.058781,0.116991,-0.902497
2.958333,-0.093471,0.128650,-0.899274
2.962500,-0.119118,0.130606,-0.906495
2.966667,-0.167334,0.114298,-0.920905
2.970833,-0.160843,0.127240,-0.903271
2.975000,-0.172999,0.112462,-0.898934
2.979167,-0.128407,0.128853,-0.920907
2.983333,-0.026013,0.119908,-0.914573
2.987500,0.128098,0.137862,-0.922879
2.991667,0.335647,0.118898,-0.918676
2.995833,0.569487,0.127004,-0.923936
3.000000,0.809628,0.123728,-0.911839
3.004167,0.992823,0.147305,-0.910920
3.008333,1.067322,0.142704,-0.920666
3.012500,1.003388,0.152438,-0.935127
3.016667,0.856893,0.165733,-0.947758
3.020833,0.639020,0.155328,-0.940827
3.025000,0.330320,0.178043,-0.948086
3.029167,0.090933,0.178611,-0.922848
3.033333,-0.107569,0.184367,-0.942647
3.037500,-0.193614,0.186204,-0.938816
3.041667,-0.226020,0.203224,-0.947564
3.045833,-0.201514,0.203454,-0.955583
3.050000,-0.128518,0.227299,-0.949746
3.054167,-0.088908,0.226207,-0.935907
3.058333,-0.044714,0.249192,-0.945926
3.062500,-0.052192,0.253761,-0.940475
3.066667,-0.033865,0.282067,-0.954404
3.070833,-0.001283,0.281205,-0.937965
3.075000,-0.041132,0.302201,-0.957541
3.079167,-0.024847,0.302582,-0.974317
3.083333,-0.015078,0.321397,-0.951161
3.087500,0.010580,0.328233,-0.956174
3.091667,-0.019176,0.315287,-0.977150
3.095833,-0.031136,0.321092,-0.974152
3.100000,-0.018062,0.333070,-0.964395
3.104167,0.024731,0.309779,-0.954256
3.108333,0.016034,0.326382,-0.960883
3.112500,0.025736,0.291405,-0.954028
3.116667,0.019268,0.301954,-0.962073
3.120833,0.030438,0.262941,-0.964288
3.125000,0.041336,0.254908,-0.964694
3.129167,0.056059,0.250960,-0.989752
3.133333,0.064502,0.226168,-0.992319
3.137500,0.089368,0.216826,-0.964458
3.141667,0.098409,0.202242,-0.968140
3.145833,0.084620,0.182889,-0.973977
3.150000,0.087771,0.182322,-0.982892
3.154167,0.131056,0.176474,-0.975714
3.158333,0.117003,0.141899,-0.975255
3.162500,0.119021,0.134537,-0.971444
3.166667,0.154947,0.133473,-0.986602
3.170833,0.184592,0.131968,-0.987479
3.175000,0.177275,0.126215,-0.973006
3.179167,0.165579,0.141812,-0.985047
3.183333,0.182626,0.119750,-0.986526
3.187500,0.217856,0.107953,-1.002221
3.191667,0.208891,0.123137,-0.981834
3.195833,0.225327,0.103586,-0.995979
3.200000,0.252825,0.096790,-0.996477
3.204167,0.264938,0.099521,-0.981019
3.208333,0.239424,0.113871,-0.998096
3.212500,0.255746,0.110493,-0.981167
3.216667,0.248568,0.087262,-0.980541
3.220833,0.270666,0.088853,-1.008361
3.225000,0.261215,0.072844,-0.979887
3.229167,0.257770,0.074078,-1.001042
3.233333,0.257308,0.080930,-0.994521
3.237500,0.263863,0.082641,-1.010050
3.241667,0.283429,0.076195,-0.981371
3.245833,0.235387,0.062393,-0.997054
3.250000,0.239462,0.079900,-0.991650
3.254167,0.276341,0.067046,-0.985250
3.258333,0.225710,0.080222,-0.986874
3.262500,0.203531,0.079364,-1.000656
3.266667,0.241331,0.074051,-0.992611
3.270833,0.211399,0.066304,-1.000214
3.275000,0.189252,0.068526,-0.998613
3.279167,0.190184,0.093788,-0.994924
3.283333,0.184624,0.091689,-1.009337
3.287500,0.182920,0.077104,-1.000318
3.291667,0.163910,0.083841,-0.993045
3.295833,0.137631,0.102744,-0.987882
3.300000,0.145989,0.102856,-0.975535
3.304167,0.138773,0.100561,-1.000195
3.308333,0.091468,0.094279,-0.975876
3.312500,0.075119,0.092213,-0.973474
3.316667,0.073044,0.086981,-0.984460
3.320833,0.094442,0.087777,-1.006210
3.325000,0.046324,0.103496,-0.993165
3.329167,0.016802,0.090728,-1.003034
3.333333,0.047084,0.086270,-0.972964
3.337500,0.040756,0.102639,-0.989106
3.341667,0.011788,0.094623,-0.992235
3.345833,-0.016375,0.080301,-1.001724
3.350000,0.006133,0.076976,-0.973836
3.354167,0.018561,0.077801,-0.980015
3.358333,-0.021800,0.067853,-0.968203
3.362500,-0.007473,0.081985,-0.990949
3.366667,-0.018469,0.079282,-0.976142
3.370833,-0.025807,0.061987,-0.983173
3.375000,-0.031971,0.055273,-0.974862
3.379167,-0.053521,0.043933,-0.986015
3.383333,-0.014045,0.064767,-0.977823
3.387500,-0.035802,0.039361,-0.992487
3.391667,-0.032412,0.063005,-0.969586
3.395833,-0.052169,0.060515,-0.964605
3.400000,-0.027449,0.064722,-0.968957
3.404167,-0.015545,0.048860,-0.971254
3.408333,-0.060299,0.042482,-0.958552
3.412500,-0.036877,0.041214,-0.970447
3.416667,-0.064587,0.050575,-0.971257
3.420833,-0.037124,0.064951,-0.979488
3.425000,-0.027986,0.068963,-0.966741
3.429167,-0.069937,0.067486,-0.969643
3.433333,-0.067658,0.081096,-0.963441
3.437500,-0.022147,0.063235,-0.975282
3.441667,-0.048074,0.089083,-0.946745
3.445833,-0.059677,0.091092,-0.975501
3.450000,-0.046019,0.074596,-0.967350
3.454167,-0.030096,0.089899,-0.945999
3.458333,-0.055369,0.082030,-0.939070
3.462500,-0.059799,0.069419,-0.962960
3.466667,-0.037234,0.075776,-0.958823
3.470833,-0.017911,0.082807,-0.935609
3.475000,-0.050286,0.081073,-0.949978
3.479167,-0.049528,0.071254,-0.939188
3.483333,-0.030378,0.068799,-0.928766
3.487500,-0.052297,0.074091,-0.947166
3.491667,-0.060797,0.082217,-0.948217
3.495833,-0.053396,0.075649,-0.920163
3.500000,-0.068341,0.051223,-0.926889
3.504167,-0.024385,0.053668,-0.945178
3.508333,-0.045519,0.046571,-0.948764
3.512500,-0.054235,0.035743,-0.941367
3.516667,-0.045852,0.038718,-0.935888
3.520833,-0.040185,0.037705,-0.931105
3.525000,-0.035739,0.028613,-0.928926
3.529167,-0.044133,0.037507,-0.926568
3.533333,-0.049966,0.027987,-0.913624
3.537500,-0.019337,0.029957,-0.911164
3.541667,-0.068238,0.034994,-0.902209
3.545833,-0.078582,0.030540,-0.894312
3.550000,-0.062649,0.040425,-0.908031
3.554167,-0.041416,0.049625,-0.896847
3.558333,-0.039804,0.053643,-0.906429
3.562500,-0.070251,0.057707,-0.891193
3.566667,-0.059222,0.061333,-0.907274
3.570833,-0.029631,0.060495,-0.906397
3.575000,-0.041757,0.067758,-0.884320
3.579167,-0.042681,0.072805,-0.906257
3.583333,-0.050831,0.059314,-0.899716
3.587500,-0.022643,0.076967,-0.899082
3.591667,-0.067438,0.058909,-0.893192
3.595833,-0.043709,0.055864,-0.864847
3.600000,-0.061343,0.066030,-0.872001
3.604167,-0.046796,0.056548,-0.861752
3.608333,-0.038991,0.070764,-0.866788
3.612500,-0.064901,0.059061,-0.880327
3.616667,-0.028157,0.073062,-0.880582
3.620833,-0.020751,0.072416,-0.873059
3.625000,-0.035812,0.065125,-0.852868
3.629167,-0.056268,0.050854,-0.846023
3.633333,-0.032634,0.056376,-0.854519
3.637500,-0.019301,0.047586,-0.866863
3.641667,-0.062689,0.044282,-0.857526
3.645833,-0.035751,0.058328,-0.849020
3.650000,-0.027837,0.050017,-0.849848
3.654167,-0.030423,0.022394,-0.834147
3.658333,-0.027963,0.043550,-0.838361
3.662500,-0.036673,0.015794,-0.834510
3.666667,-0.015791,0.014980,-0.815952
3.670833,-0.019720,0.018880,-0.811430
3.675000,-0.009270,0.010116,-0.819939
3.679167,-0.031864,0.018222,-0.815888
3.683333,-0.000902,0.024722,-0.812927
3.687500,0.001244,0.013376,-0.815019
3.691667,0.020119,0.035613,-0.805669
3.695833,-0.008862,0.022563,-0.811446
3.700000,0.039427,0.042032,-0.805726
3.704167,0.021077,0.022810,-0.815893
3.708333,0.014211,0.028627,-0.805400
3.712500,0.020717,0.036412,-0.796450
3.716667,0.019665,0.053038,-0.775482
3.720833,0.053035,0.054068,-0.798090
3.725000,0.044316,0.043052,-0.778239
3.729167,0.030253,0.040538,-0.781196
3.733333,0.042526,0.045007,-0.772782
3.737500,0.031916,0.062536,-0.755305
3.741667,0.029100,0.066504,-0.781205
3.745833,0.012973,0.068357,-0.779391
3.750000,0.009981,0.044196,-0.765806
3.754167,0.015566,0.045218,-0.764469
3.758333,-0.013538,0.051725,-0.755581
3.762500,-0.029025,0.040768,-0.732270
3.766667,-0.018204,0.050900,-0.753726
3.770833,-0.014978,0.060018,-0.721969
3.775000,-0.023001,0.044089,-0.724076
3.779167,-0.034911,0.034500,-0.733990
3.783333,-0.047940,0.045004,-0.733218
3.787500,-0.034222,0.044146,-0.708084
3.791667,-0.033141,0.034435,-0.720977
3.795833,-0.055545,0.056587,-0.721005
3.800000,-0.043386,0.041154,-0.702770
3.804167,-0.016013,0.054330,-0.715744
3.808333,-0.050808,0.051984,-0.700974
3.812500,-0.041227,0.042168,-0.704048
3.816667,-0.038288,0.046615,-0.679810
3.820833,-0.032043,0.054364,-0.678692
3.825000,-0.053678,0.062000,-0.676797
3.829167,-0.068276,0.036781,-0.686625
3.833333,-0.024549,0.056595,-0.670675
3.837500,-0.046441,0.051959,-0.665342
3.841667,-0.057157,0.051759,-0.678042
3.845833,-0.064222,0.058315,-0.665479
3.850000,-0.088044,0.069070,-0.649316
3.854167,-0.105276,0.080698,-0.645951
3.858333,-0.179934,0.068228,-0.635639
3.862500,-0.197962,0.069907,-0.656133
3.866667,-0.143281,0.094452,-0.631075
3.870833,-0.062840,0.088488,-0.620531
3.875000,0.058907,0.083135,-0.614816
3.879167,0.204143,0.084163,-0.619282
3.883333,0.450812,0.073885,-0.633999
3.887500,0.693322,0.092084,-0.635618
3.891667,0.894968,0.088604,-0.611291
3.895833,1.038563,0.081451,-0.604843
3.900000,1.066121,0.081175,-0.606786
3.904167,0.994170,0.100039,-0.593636
3.908333,0.751415,0.091557,-0.607969
3.912500,0.465391,0.080959,-0.581955
3.916667,0.218975,0.090130,-0.586875
3.920833,0.027389,0.065755,-0.566945
3.925000,-0.149120,0.082390,-0.572296
3.929167,-0.249321,0.062806,-0.580274
3.933333,-0.224451,0.057918,-0.551850
3.937500,-0.167837,0.068448,-0.570622
3.941667,-0.096395,0.073664,-0.566539
3.945833,-0.064334,0.075626,-0.556159
3.950000,-0.040734,0.087600,-0.532716
3.954167,-0.022652,0.090684,-0.526387
3.958333,-0.028281,0.089018,-0.535306
3.962500,-0.030985,0.106178,-0.518628
3.966667,-0.030172,0.117959,-0.530901
3.970833,0.001335,0.137269,-0.525957
3.975000,-0.024487,0.144370,-0.531009
3.979167,-0.031289,0.164935,-0.528921
3.983333,0.003338,0.191576,-0.499747
3.987500,0.016921,0.219722,-0.486298
3.991667,0.004358,0.243222,-0.481467
3.995833,0.012954,0.255544,-0.485876
4.000000,0.023038,0.274396,-0.490680
4.004167,0.061223,0.275973,-0.495474
4.008333,0.059374,0.294763,-0.487540
4.012500,0.055727,0.283980,-0.487900
4.016667,0.057095,0.279976,-0.472487
4.020833,0.090001,0.266469,-0.468804
4.025000,0.098094,0.275119,-0.469432
4.029167,0.078695,0.244896,-0.459473
4.033333,0.096707,0.235772,-0.448508
4.037500,0.107258,0.210303,-0.452519
4.041667,0.131819,0.212728,-0.448212
4.045833,0.128691,0.177066,-0.413055
4.050000,0.165877,0.162915,-0.417664
4.054167,0.170968,0.152073,-0.431328
4.058333,0.170446,0.117537,-0.416924
4.062500,0.177514,0.108149,-0.423601
4.066667,0.200372,0.085286,-0.411614
4.070833,0.206392,0.057241,-0.381655
4.075000,0.237135,0.053109,-0.388652
4.079167,0.241702,0.042803,-0.403127
4.083333,0.226931,0.034982,-0.376828
4.087500,0.260661,0.022839,-0.373785
4.091667,0.261428,0.008155,-0.382363
4.095833,0.272068,0.021494,-0.356813
4.100000,0.276157,0.022970,-0.368728
4.104167,0.306857,-0.007332,-0.343117
4.108333,0.300385,0.007373,-0.337611
4.112500,0.261736,0.009522,-0.332276
4.116667,0.291633,-0.000544,-0.334081
4.120833,0.301645,-0.005079,-0.337106
4.125000,0.279200,0.020626,-0.321751
4.129167,0.261176,0.022882,-0.317819
4.133333,0.270550,-0.000450,-0.322936
4.137500,0.280094,0.007418,-0.324336
4.141667,0.256727,0.027612,-0.315988
4.145833,0.250343,0.014556,-0.299387
4.150000,0.244481,0.016307,-0.286665
4.154167,0.278026,0.017409,-0.279545
4.158333,0.221052,0.026486,-0.268875
4.162500,0.208886,0.013426,-0.275575
4.166667,0.225141,0.018294,-0.285334
4.170833,0.209271,0.022188,-0.257339
4.175000,0.185318,0.016333,-0.249402
4.179167,0.186384,0.037550,-0.235699
4.183333,0.162047,0.015662,-0.259269
4.187500,0.173204,0.041080,-0.226382
4.191667,0.148466,0.026080,-0.244678
4.195833,0.116867,0.036452,-0.229524
4.200000,0.124409,0.013929,-0.221190
4.204167,0.128541,0.028046,-0.203952
4.208333,0.117514,0.014048,-0.223296
4.212500,0.068045,0.018833,-0.198857
4.216667,0.098651,0.013235,-0.197493
4.220833,0.098606,-0.009805,-0.200738
4.225000,0.065272,0.003103,-0.204269
4.229167,0.024454,-0.011604,-0.191666
4.233333,0.065835,-0.025641,-0.163201
4.237500,0.031837,-0.017501,-0.171333
4.241667,0.013420,-0.026053,-0.177337
4.245833,0.029471,-0.026081,-0.174330
4.250000,0.010170,-0.023574,-0.162733
4.254167,0.021264,-0.034673,-0.140177
4.258333,0.030809,-0.025175,-0.131142
4.262500,0.001046,-0.034154,-0.141613
4.266667,0.021109,-0.026216,-0.129635
4.270833,0.000995,-0.012832,-0.142793
4.275000,0.018872,-0.020990,-0.123027
4.279167,-0.028837,0.001073,-0.121121
4.283333,-0.000243,0.005342,-0.126417
4.287500,0.021207,0.008763,-0.119183
4.291667,-0.018877,-0.000306,-0.115992
4.295833,-0.006457,0.008220,-0.098262
4.300000,0.008293,0.011811,-0.086972
4.304167,-0.004630,0.012082,-0.072593
4.308333,-0.012089,-0.000097,-0.064560
4.312500,-0.011674,0.020031,-0.083633
4.316667,-0.003837,0.011893,-0.065476
4.320833,-0.011775,0.002589,-0.062616
4.325000,-0.004588,0.015352,-0.060288
4.329167,-0.029398,-0.000179,-0.054256
4.333333,-0.000313,-0.001311,-0.024643
4.337500,-0.014741,0.017086,-0.020658
4.341667,-0.002599,0.015183,-0.027665
4.345833,-0.010091,-0.017555,-0.022772
4.350000,0.003317,-0.016966,-0.027241
4.354167,0.006027,-0.002931,-0.014545
4.358333,-0.018588,-0.027020,-0.018784
4.362500,-0.012589,-0.030220,0.015112
4.366667,-0.014173,-0.014360,0.007010
4.370833,0.018588,-0.030633,0.010466
4.375000,-0.022156,-0.024001,0.032349
4.379167,-0.026077,-0.037144,0.035235
4.383333,-0.014333,-0.029087,0.020594
4.387500,-0.013807,-0.044275,0.016400
4.391667,-0.010812,-0.034678,0.027365
4.395833,-0.034583,-0.052765,0.030165
4.400000,-0.006572,-0.038414,0.042329
4.404167,-0.005731,-0.045088,0.040626
4.408333,0.000056,-0.028912,0.057711
4.412500,-0.040314,-0.018271,0.055953
4.416667,0.006484,-0.020724,0.085039
4.420833,-0.016472,-0.020634,0.096542
4.425000,-0.027412,-0.022846,0.096178
4.429167,-0.023633,-0.012642,0.106820
4.433333,0.004140,-0.021424,0.103739
4.437500,-0.015245,-0.027399,0.116415
4.441667,-0.025190,-0.014657,0.112072
4.445833,-0.014081,0.002147,0.128857
4.450000,-0.025328,-0.014833,0.119112
4.454167,0.017297,-0.001716,0.129203
4.458333,-0.022682,-0.010298,0.126288
4.462500,-0.018824,-0.005024,0.136015
4.466667,0.009224,0.008232,0.135895
4.470833,0.017248,-0.013864,0.140190
4.475000,-0.004075,-0.006619,0.142413
4.479167,-0.028759,-0.002021,0.159458
4.483333,0.006493,-0.025166,0.160113
4.487500,0.025761,-0.021742,0.183715
4.491667,-0.018176,-0.012110,0.181242
4.495833,0.002405,-0.009715,0.187257
4.500000,0.002231,-0.027419,0.186072
4.504167,-0.004074,-0.027116,0.196441
4.508333,-0.015953,-0.023882,0.202412
4.512500,0.004692,-0.036473,0.194772
4.516667,0.006176,-0.045218,0.201504
4.520833,0.007573,-0.054519,0.205510
4.525000,0.017925,-0.057161,0.208403
4.529167,-0.024854,-0.057806,0.236096
4.533333,-0.013036,-0.037879,0.232657
4.537500,0.004976,-0.060852,0.234409
4.541667,0.000975,-0.063349,0.258998
4.545833,-0.011341,-0.059695,0.252453
4.550000,0.008582,-0.060397,0.258944
4.554167,0.009772,-0.061813,0.247168
4.558333,-0.005387,-0.046994,0.247430
4.562500,-0.011995,-0.040956,0.255426
4.566667,0.005128,-0.029917,0.263196
4.570833,0.022394,-0.037864,0.281787
4.575000,0.005514,-0.043324,0.285299
4.579167,0.006665,-0.032896,0.300105
4.583333,0.025275,-0.029800,0.305347
4.587500,0.062106,-0.037362,0.305738
4.591667,0.030734,-0.016060,0.315982
4.595833,0.054465,-0.023935,0.320487
4.600000,0.037506,-0.031614,0.319309
4.604167,0.076829,-0.008760,0.313195
4.608333,0.066202,-0.031157,0.342118
4.612500,0.068392,-0.016346,0.350271
4.616667,0.082488,-0.012493,0.338069
4.620833,0.095938,-0.035023,0.340793
4.625000,0.095569,-0.020582,0.344484
4.629167,0.064284,-0.032094,0.351955
4.633333,0.103857,-0.042040,0.343637
4.637500,0.099748,-0.028378,0.354968
4.641667,0.067047,-0.023710,0.374187
4.645833,0.079322,-0.022600,0.390876
4.650000,0.066886,-0.043556,0.363163
4.654167,0.092715,-0.043247,0.383489
4.658333,0.052742,-0.027992,0.390206
4.662500,0.022674,-0.041352,0.377439
4.666667,0.034713,-0.024580,0.400089
4.670833,0.046358,-0.019693,0.410429
4.675000,0.034513,-0.027260,0.401084
4.679167,0.025501,-0.029674,0.415340
4.683333,0.007054,-0.019458,0.430705
4.687500,0.051533,-0.029113,0.432902
4.691667,0.002576,-0.032641,0.432976
4.695833,-0.005202,-0.032928,0.429721
4.700000,0.017435,-0.008391,0.449529
4.704167,0.040711,-0.008572,0.439014
4.708333,0.022861,-0.001323,0.465932
4.712500,0.008150,-0.018490,0.439384
4.716667,-0.006873,-0.001240,0.464905
4.720833,0.011863,0.003480,0.463191
4.725000,-0.003817,-0.003284,0.452968
4.729167,-0.012329,0.011685,0.467906
4.733333,0.023402,0.013595,0.463689
4.737500,0.008578,0.006831,0.479043
4.741667,-0.006617,0.012811,0.473421
4.745833,0.020162,0.020790,0.499694
4.750000,0.020311,0.006699,0.508646
4.754167,0.031337,0.018946,0.484333
4.758333,-0.019061,0.007844,0.508538
4.762500,-0.073887,0.013279,0.506017
4.766667,-0.095196,0.013946,0.498371
4.770833,-0.100305,-0.001341,0.524418
4.775000,-0.113632,0.012176,0.514826
4.779167,-0.080238,-0.007420,0.526228
4.783333,0.031039,-0.001763,0.516529
4.787500,0.208834,0.002878,0.550230
4.791667,0.402494,0.007632,0.535234
4.795833,0.620064,0.000559,0.550323
4.800000,0.865752,-0.012006,0.542665
4.804167,1.078250,0.012088,0.558416
4.808333,1.153356,-0.008709,0.561611
4.812500,1.095993,0.008286,0.572954
4.816667,0.930689,0.014954,0.560557
4.820833,0.705249,0.023697,0.558409
4.825000,0.395038,0.031776,0.585665
4.829167,0.138541,0.049691,0.589653
4.833333,-0.046898,0.074310,0.594254
4.837500,-0.119868,0.087003,0.585140
4.841667,-0.190615,0.106361,0.581328
4.845833,-0.169423,0.146890,0.604064
4.850000,-0.089214,0.171735,0.594362
4.854167,-0.017483,0.183876,0.592847
4.858333,0.007165,0.177989,0.612217
4.862500,0.017048,0.212025,0.603874
4.866667,0.051591,0.203656,0.613215
4.870833,0.042351,0.213037,0.627247
4.875000,0.029480,0.199080,0.611274
4.879167,0.012783,0.218076,0.622915
4.883333,0.047894,0.185658,0.641926
4.887500,0.054821,0.165725,0.620373
4.891667,0.074020,0.156424,0.647060
4.895833,0.062995,0.148041,0.652383
4.900000,0.071949,0.120522,0.659372
4.904167,0.091444,0.111532,0.658204
4.908333,0.067810,0.094300,0.645092
4.912500,0.077484,0.068621,0.672677
4.916667,0.093359,0.051481,0.646168
4.920833,0.131689,0.030853,0.650230
4.925000,0.119269,0.002197,0.661709
4.929167,0.093544,-0.017185,0.672945
4.933333,0.149936,-0.016937,0.686391
4.937500,0.154831,-0.033901,0.695026
4.941667,0.142503,-0.049366,0.667250
4.945833,0.162460,-0.045857,0.688418
4.950000,0.174913,-0.058619,0.685842
4.954167,0.194990,-0.056329,0.689873
4.958333,0.191294,-0.070993,0.700628
4.962500,0.191176,-0.051961,0.692086
4.966667,0.223804,-0.059877,0.695631
4.970833,0.272420,-0.078639,0.697506
4.975000,0.253483,-0.078224,0.700708
4.979167,0.255730,-0.081016,0.707743
4.983333,0.284407,-0.067273,0.709498
4.987500,0.319703,-0.069643,0.710276
4.991667,0.310850,-0.072136,0.735397
4.995833,0.314673,-0.065540,0.734528
5.000000,0.311000,-0.055967,0.733968
5.004167,0.350059,-0.060526,0.750040
5.008333,0.329096,-0.061694,0.745379
5.012500,0.342835,-0.057298,0.738089
5.016667,0.337601,-0.033941,0.755764
5.020833,0.367175,-0.049626,0.736710
5.025000,0.352847,-0.036133,0.756281
5.029167,0.322572,-0.047414,0.759162
5.033333,0.341794,-0.051053,0.759832
5.037500,0.374273,-0.056283,0.772675
5.041667,0.327508,-0.052548,0.776878
5.045833,0.311578,-0.053244,0.764298
5.050000,0.351094,-0.041348,0.754161
5.054167,0.358927,-0.037979,0.774003
5.058333,0.340036,-0.039846,0.759955
5.062500,0.294120,-0.059704,0.764335
5.066667,0.289662,-0.051128,0.766155
5.070833,0.293973,-0.080311,0.783794
5.075000,0.298383,-0.062510,0.769203
5.079167,0.273223,-0.078204,0.782135
5.083333,0.268365,-0.067542,0.790226
5.087500,0.252179,-0.067955,0.790709
5.091667,0.238367,-0.086813,0.795770
5.095833,0.218621,-0.079863,0.782438
5.100000,0.226229,-0.084234,0.788285
5.104167,0.225335,-0.078937,0.796987
5.108333,0.192685,-0.097940,0.784721
5.112500,0.155519,-0.100504,0.790799
5.116667,0.145080,-0.104561,0.786735
5.120833,0.148319,-0.083411,0.794535
5.125000,0.155002,-0.083783,0.822108
5.129167,0.126494,-0.094504,0.816858
5.133333,0.129554,-0.093722,0.799104
5.137500,0.109938,-0.069262,0.801858
5.141667,0.124112,-0.088904,0.808765
5.145833,0.073009,-0.066134,0.813597
5.150000,0.087866,-0.058486,0.820776
5.154167,0.094579,-0.075614,0.839038
5.158333,0.092881,-0.071319,0.809646
5.162500,0.080973,-0.055598,0.814741
5.166667,0.053301,-0.054274,0.823882
5.170833,0.063940,-0.059652,0.815933
5.175000,0.046904,-0.050056,0.848833
5.179167,0.034365,-0.066523,0.826691
5.183333,0.042587,-0.044960,0.826518
5.187500,0.077532,-0.070634,0.848047
5.191667,0.047942,-0.052002,0.850892
5.195833,0.039940,-0.066954,0.844799
5.200000,0.050600,-0.081159,0.852425
5.204167,0.075695,-0.087064,0.850814
5.208333,0.040084,-0.076802,0.832680
5.212500,0.048217,-0.069381,0.853158
5.216667,0.030426,-0.075674,0.843463
5.220833,0.058327,-0.078401,0.861892
5.225000,0.053216,-0.091800,0.853046
5.229167,0.034365,-0.108010,0.866219
5.233333,0.058261,-0.084890,0.864928
5.237500,0.062147,-0.098270,0.864278
5.241667,0.034695,-0.094928,0.838443
5.245833,0.024822,-0.109909,0.842726
5.250000,0.029612,-0.105782,0.869558
5.254167,0.072997,-0.095439,0.841339
5.258333,0.049630,-0.112334,0.842956
5.262500,0.018381,-0.113178,0.875818
5.266667,0.042599,-0.090212,0.854324
5.270833,0.041361,-0.088559,0.850167
5.275000,0.031368,-0.096567,0.855196
5.279167,0.037770,-0.099740,0.869449
5.283333,0.043411,-0.075102,0.847983
5.287500,0.060243,-0.093066,0.879683
5.291667,0.052423,-0.070479,0.882269
5.295833,0.017204,-0.090952,0.856889
5.300000,0.037055,-0.069933,0.859756
5.304167,0.055271,-0.071654,0.855869
5.308333,0.038042,-0.078968,0.870282
5.312500,0.048577,-0.066328,0.853992
5.316667,0.032145,-0.070682,0.885037
5.320833,0.070318,-0.063049,0.853310
5.325000,0.035117,-0.082209,0.866244
5.329167,0.041687,-0.062191,0.855936
5.333333,0.047769,-0.073630,0.863702
5.337500,0.058869,-0.068512,0.860535
5.341667,0.041573,-0.066177,0.884653
5.345833,0.018133,-0.087252,0.886623
5.350000,0.064180,-0.078785,0.880410
5.354167,0.037039,-0.080426,0.857541
5.358333,0.050902,-0.101947,0.872818
5.362500,0.038668,-0.101489,0.873429
5.366667,0.026627,-0.087752,0.871911
5.370833,0.066634,-0.117529,0.873307
5.375000,0.044232,-0.095081,0.867632
5.379167,0.020784,-0.100437,0.880935
5.383333,0.061296,-0.107026,0.870958
5.387500,0.060713,-0.099142,0.877859
5.391667,0.026782,-0.128957,0.886815
5.395833,0.026858,-0.107305,0.884616
5.400000,0.028729,-0.128581,0.873994
5.404167,0.054769,-0.099037,0.871934
5.408333,0.066535,-0.124159,0.857977
5.412500,0.048334,-0.107692,0.878017
5.416667,0.063997,-0.118316,0.870584
5.420833,0.066725,-0.105573,0.868429
5.425000,0.032588,-0.094231,0.886168
5.429167,0.047503,-0.105737,0.865820
5.433333,0.042119,-0.084170,0.876166
5.437500,0.042479,-0.089892,0.869102
5.441667,0.033373,-0.097039,0.880121
5.445833,0.055601,-0.073479,0.860371
5.450000,0.045213,-0.076605,0.851837
5.454167,0.088128,-0.093600,0.864960
5.458333,0.043432,-0.064456,0.853846
5.462500,0.070813,-0.088947,0.881966
5.466667,0.061484,-0.079587,0.867777
5.470833,0.076001,-0.091254,0.858801
5.475000,0.086797,-0.075835,0.861087
5.479167,0.066873,-0.074684,0.864880
5.483333,0.113626,-0.070668,0.863404
5.487500,0.125060,-0.065472,0.876415
5.491667,0.094814,-0.071921,0.848638
5.495833,0.102733,-0.082692,0.842312
5.500000,0.116754,-0.077544,0.872494
5.504167,0.147530,-0.075253,0.844523
5.508333,0.117654,-0.097201,0.867781
5.512500,0.134156,-0.084585,0.868831
5.516667,0.142330,-0.077754,0.860849
5.520833,0.128702,-0.084693,0.869315
5.525000,0.119989,-0.086951,0.839101
5.529167,0.108640,-0.073448,0.837380
5.533333,0.133755,-0.079981,0.862882
5.537500,0.124770,-0.082034,0.859717
5.541667,0.109848,-0.078181,0.829583
5.545833,0.071523,-0.089438,0.849518
5.550000,0.071258,-0.073021,0.835973
5.554167,0.081679,-0.071932,0.827136
5.558333,0.077568,-0.058168,0.838922
5.562500,0.052210,-0.081689,0.834716
5.566667,0.048896,-0.059352,0.852735
5.570833,0.063935,-0.062714,0.838895
5.575000,0.072319,-0.068520,0.837216
5.579167,0.060402,-0.064988,0.816602
5.583333,0.049082,-0.055066,0.841852
5.587500,0.064885,-0.051809,0.811290
5.591667,0.039742,-0.057712,0.829106
5.595833,0.041562,-0.057404,0.841526
5.600000,0.034880,-0.033189,0.838435
5.604167,0.082341,-0.035222,0.824732
5.608333,0.064333,-0.037782,0.818157
5.612500,0.021726,-0.046920,0.804081
5.616667,0.047396,-0.043884,0.829572
5.620833,0.045022,-0.044550,0.813088
5.625000,0.060907,-0.034785,0.826247
5.629167,0.055108,-0.035878,0.817944
5.633333,0.057640,-0.050338,0.803734
5.637500,0.062026,-0.048480,0.791030
5.641667,0.011480,-0.063448,0.800240
5.645833,0.000305,-0.055484,0.784116
5.650000,-0.029899,-0.043439,0.812464
5.654167,-0.062761,-0.052417,0.800654
5.658333,-0.082496,-0.030825,0.801758
5.662500,-0.062688,-0.038723,0.793779
5.666667,0.013031,-0.022719,0.772164
5.670833,0.149034,-0.010599,0.797079
5.675000,0.300061,-0.001855,0.789125
5.679167,0.527618,0.003494,0.795688
5.683333,0.767257,0.026735,0.763289
5.687500,0.999944,0.047957,0.776467
5.691667,1.158453,0.070742,0.764792
5.695833,1.160290,0.100005,0.754860
5.700000,1.059813,0.110959,0.762910
5.704167,0.837151,0.111997,0.773664
5.708333,0.587756,0.144622,0.760999
5.712500,0.297632,0.158203,0.743497
5.716667,0.084712,0.137962,0.745485
5.720833,-0.072594,0.147254,0.761637
5.725000,-0.156851,0.156669,0.740866
5.729167,-0.167577,0.140186,0.764380
5.733333,-0.068118,0.144997,0.762834
5.737500,-0.023785,0.113147,0.727263
5.741667,0.012155,0.105697,0.753003
5.745833,0.026264,0.093006,0.742011
5.750000,0.076046,0.085835,0.734613
5.754167,0.094343,0.055241,0.745783
5.758333,0.060606,0.020772,0.712077
5.762500,0.048985,0.015603,0.727409
5.766667,0.081741,0.003835,0.732586
5.770833,0.081763,-0.010803,0.714023
5.775000,0.091163,-0.039073,0.701026
5.779167,0.058604,-0.041948,0.706966
5.783333,0.110076,-0.059323,0.713238
5.787500,0.122849,-0.086071,0.704780
5.791667,0.087365,-0.085367,0.696650
5.795833,0.104080,-0.094324,0.683226
5.800000,0.106791,-0.109509,0.698684
5.804167,0.151899,-0.112288,0.691870
5.808333,0.138160,-0.118313,0.680535
5.812500,0.133730,-0.100892,0.679531
5.816667,0.154617,-0.121126,0.680878
5.820833,0.180882,-0.107917,0.672094
5.825000,0.190265,-0.111030,0.683050
5.829167,0.189638,-0.116658,0.668893
5.833333,0.215425,-0.105601,0.652738
5.837500,0.206643,-0.110414,0.649987
5.841667,0.224520,-0.104656,0.659146
5.845833,0.235914,-0.109017,0.654959
5.850000,0.231274,-0.093480,0.666439
5.854167,0.275556,-0.110211,0.650585
5.858333,0.252214,-0.095214,0.643271
5.862500,0.277355,-0.098167,0.637796
5.866667,0.311151,-0.102394,0.620562
5.870833,0.317933,-0.104037,0.621528
5.875000,0.331337,-0.095509,0.642307
5.879167,0.300826,-0.086408,0.637911
5.883333,0.330973,-0.079386,0.635940
5.887500,0.340099,-0.087880,0.629091
5.891667,0.347238,-0.074056,0.604864
5.895833,0.324340,-0.081621,0.603339
5.900000,0.350732,-0.078279,0.602923
5.904167,0.379183,-0.095383,0.606502
5.908333,0.356029,-0.088254,0.612950
5.912500,0.374685,-0.091723,0.577472
5.916667,0.349326,-0.103756,0.586217
5.920833,0.370461,-0.113761,0.597095
5.925000,0.363999,-0.119095,0.565261
5.929167,0.331783,-0.122492,0.563211
5.933333,0.353684,-0.114049,0.556551
5.937500,0.363137,-0.125776,0.567540
5.941667,0.354094,-0.130628,0.570707
5.945833,0.327060,-0.119283,0.554388
5.950000,0.341416,-0.134777,0.569195
5.954167,0.340748,-0.142625,0.565564
5.958333,0.317444,-0.124411,0.544174
5.962500,0.289359,-0.144683,0.533851
5.966667,0.270758,-0.123355,0.538675
5.970833,0.297306,-0.123406,0.533073
5.975000,0.238910,-0.139788,0.520921
5.979167,0.214581,-0.140979,0.539151
5.983333,0.243419,-0.138963,0.531570
5.987500,0.219256,-0.125736,0.514202
5.991667,0.199611,-0.121166,0.508180
5.995833,0.191460,-0.124261,0.505802
6.000000,0.165239,-0.113892,0.514404
6.004167,0.165847,-0.105166,0.513216
6.008333,0.163202,-0.113200,0.496411
6.012500,0.116253,-0.115752,0.493933
6.016667,0.155104,-0.093792,0.468357
6.020833,0.127691,-0.098874,0.488075
6.025000,0.108863,-0.084965,0.486322
6.029167,0.114406,-0.106144,0.459705
6.033333,0.114537,-0.092796,0.465537
6.037500,0.123764,-0.086734,0.467445
6.041667,0.082108,-0.104020,0.437076
6.045833,0.089973,-0.111307,0.445479
6.050000,0.076616,-0.112489,0.460638
6.054167,0.103793,-0.112414,0.450426
6.058333,0.088787,-0.118165,0.417734
6.062500,0.037140,-0.100877,0.441844
6.066667,0.071089,-0.109067,0.420994
6.070833,0.077242,-0.123561,0.428054
6.075000,0.068468,-0.126188,0.419174
6.079167,0.032601,-0.115492,0.397511
6.083333,0.062638,-0.134302,0.404815
6.087500,0.054067,-0.129166,0.387636
6.091667,0.045147,-0.144795,0.400722
6.095833,0.023097,-0.124836,0.391136
6.100000,0.044680,-0.128890,0.385621
6.104167,0.053271,-0.149996,0.378695
6.108333,0.058090,-0.125984,0.363410
6.112500,0.040879,-0.134237,0.357740
6.116667,0.045543,-0.149015,0.353648
6.120833,0.057114,-0.121829,0.374670
6.125000,0.059214,-0.128578,0.361570
6.129167,0.019687,-0.143577,0.333520
6.133333,0.050378,-0.139025,0.332991
6.137500,0.039623,-0.120466,0.326879
6.141667,0.039623,-0.107973,0.347940
6.145833,0.016219,-0.127188,0.312487
6.150000,0.043744,-0.100734,0.306872
6.154167,0.051623,-0.101968,0.300673
6.158333,0.050287,-0.104939,0.324155
6.162500,0.008975,-0.098089,0.296388
6.166667,0.045442,-0.109910,0.304713
6.170833,0.034183,-0.096723,0.283936
6.175000,0.038596,-0.100805,0.292582
6.179167,0.037597,-0.113004,0.277702
6.183333,0.054697,-0.101784,0.264481
6.187500,0.038812,-0.110899,0.258344
6.191667,0.038412,-0.096890,0.263150
6.195833,0.021498,-0.089667,0.254184
6.200000,0.018820,-0.107846,0.255631
6.204167,0.057299,-0.124929,0.258941
6.208333,0.020609,-0.101064,0.242055
6.212500,0.041222,-0.106912,0.250194
6.216667,0.029907,-0.133454,0.251420
6.220833,0.036554,-0.133377,0.212420
6.225000,0.038604,-0.142028,0.234214
6.229167,0.044047,-0.134425,0.235622
6.233333,0.037507,-0.130414,0.210147
6.237500,0.034573,-0.123711,0.192998
6.241667,0.026900,-0.144017,0.211203
6.245833,0.022389,-0.136066,0.203683
6.250000,0.050521,-0.140076,0.185586
6.254167,0.062776,-0.150578,0.178682
6.258333,0.050701,-0.125490,0.184361
6.262500,0.031993,-0.146579,0.158025
6.266667,0.029346,-0.132778,0.153187
6.270833,0.031893,-0.121775,0.168858
6.275000,0.033069,-0.123445,0.144948
6.279167,0.015116,-0.133312,0.148873
6.283333,0.043847,-0.110458,0.144316
6.287500,0.050256,-0.131601,0.126479
6.291667,0.046699,-0.115952,0.143428
6.295833,0.032638,-0.107500,0.144778
6.300000,0.022648,-0.115629,0.126976
6.304167,0.057243,-0.089960,0.100366
6.308333,0.052414,-0.105730,0.107992
6.312500,0.053491,-0.099103,0.122560
6.316667,0.070696,-0.114599,0.086568
6.320833,0.080178,-0.092346,0.080452
6.325000,0.065485,-0.111232,0.092151
6.329167,0.080262,-0.104021,0.067745
6.333333,0.077479,-0.107677,0.061816
6.337500,0.082404,-0.103911,0.067639
6.341667,0.101148,-0.100712,0.063464
6.345833,0.075977,-0.102564,0.067113
6.350000,0.088387,-0.103117,0.044896
6.354167,0.127803,-0.125225,0.041602
6.358333,0.097659,-0.106859,0.053355
6.362500,0.100386,-0.122526,0.023755
6.366667,0.118723,-0.129023,0.016239
6.370833,0.127724,-0.116819,0.014692
6.375000,0.091231,-0.126863,0.032366
6.379167,0.073388,-0.141082,0.014234
6.383333,0.081677,-0.142696,-0.002558
6.387500,0.106489,-0.123106,-0.010358
6.391667,0.088377,-0.117844,-0.011871
6.395833,0.065391,-0.104916,0.006486
6.400000,0.048136,-0.118197,-0.016600
6.404167,0.057060,-0.115388,-0.011256
6.408333,0.058328,-0.097887,-0.033402
6.412500,0.032139,-0.104346,-0.034519
6.416667,0.042736,-0.107030,-0.034225
6.420833,0.038500,-0.081130,-0.028946
6.425000,0.038238,-0.074892,-0.059421
6.429167,0.021825,-0.074351,-0.043730
6.433333,0.039174,-0.063030,-0.050762
6.437500,0.041871,-0.082992,-0.051725
6.441667,0.037482,-0.081557,-0.079978
6.445833,0.021648,-0.070103,-0.091503
6.450000,0.010918,-0.071720,-0.075950
6.454167,0.024697,-0.062051,-0.085517
6.458333,0.009711,-0.060365,-0.106239
6.462500,0.012220,-0.063761,-0.115703
6.466667,0.013793,-0.044964,-0.123430
6.470833,0.019213,-0.055671,-0.118508
6.475000,0.008313,-0.068827,-0.101823
6.479167,-0.008916,-0.048347,-0.123660
6.483333,0.037374,-0.067577,-0.126489
6.487500,0.031302,-0.047652,-0.123619
6.491667,-0.001699,-0.051585,-0.136091
6.495833,-0.055919,-0.058432,-0.149142
6.500000,-0.085891,-0.077436,-0.152650
6.504167,-0.090105,-0.085275,-0.145628
6.508333,-0.119446,-0.077693,-0.162480
6.512500,-0.094434,-0.092743,-0.162856
6.516667,0.035755,-0.097604,-0.194005
6.520833,0.152351,-0.097771,-0.180593
6.525000,0.350779,-0.073790,-0.182421
6.529167,0.547224,-0.101490,-0.210225
6.533333,0.826850,-0.084483,-0.206222
6.537500,1.035398,-0.069362,-0.189568
6.541667,1.127693,-0.084053,-0.204963
6.545833,1.088437,-0.082285,-0.228510
6.550000,0.952922,-0.073224,-0.221021
6.554167,0.745402,-0.051924,-0.244729
6.558333,0.452412,-0.051058,-0.249546
6.562500,0.209484,-0.021226,-0.242882
6.566667,-0.006676,-0.002393,-0.238664
6.570833,-0.136599,0.024254,-0.251544
6.575000,-0.173921,0.016714,-0.243364
6.579167,-0.172959,0.051341,-0.245431
6.583333,-0.113511,0.061803,-0.270822
6.587500,-0.043884,0.106294,-0.268157
6.591667,-0.001104,0.117453,-0.293500
6.595833,0.014074,0.124879,-0.270347
6.600000,0.019943,0.144640,-0.303211
6.604167,0.037293,0.140937,-0.312962
6.608333,0.037248,0.155525,-0.286359
6.612500,0.016594,0.178028,-0.304184
6.616667,0.019946,0.156658,-0.299927
6.620833,0.067113,0.165214,-0.310148
6.625000,0.043961,0.153398,-0.340429
6.629167,0.057098,0.126956,-0.326992
6.633333,0.072428,0.115904,-0.339757
6.637500,0.066251,0.098009,-0.338191
6.641667,0.084998,0.081190,-0.357420
6.645833,0.082451,0.057851,-0.361112
6.650000,0.083284,0.017316,-0.351140
6.654167,0.108666,-0.011663,-0.362892
6.658333,0.116862,-0.024317,-0.380895
6.662500,0.079358,-0.022198,-0.380285
6.666667,0.098545,-0.061440,-0.386109
6.670833,0.130563,-0.067822,-0.374275
6.675000,0.139176,-0.068187,-0.401702
6.679167,0.135011,-0.087646,-0.409795
6.683333,0.176379,-0.103267,-0.417203
6.687500,0.202639,-0.087152,-0.404816
6.691667,0.176568,-0.106106,-0.427989
6.695833,0.200707,-0.109047,-0.408052
6.700000,0.213082,-0.104399,-0.423183
6.704167,0.217891,-0.112781,-0.435023
6.708333,0.247507,-0.111793,-0.425516
6.712500,0.247694,-0.090453,-0.437981
6.716667,0.269710,-0.103357,-0.458562
6.720833,0.259252,-0.101799,-0.448866
6.725000,0.265415,-0.089286,-0.470365
6.729167,0.261794,-0.069201,-0.476563
6.733333,0.295427,-0.095433,-0.458616
6.737500,0.324755,-0.079550,-0.483975
6.741667,0.307835,-0.067722,-0.487538
6.745833,0.313754,-0.066064,-0.474469
6.750000,0.302338,-0.090257,-0.470966
6.754167,0.320539,-0.082422,-0.480936
6.758333,0.341284,-0.081559,-0.506107
6.762500,0.312990,-0.087933,-0.509306
6.766667,0.342005,-0.096364,-0.513033
6.770833,0.315365,-0.071732,-0.498959
6.775000,0.311272,-0.080111,-0.503763
6.779167,0.297344,-0.088244,-0.511673
6.783333,0.290331,-0.092823,-0.542704
6.787500,0.327027,-0.102668,-0.526439
6.791667,0.276037,-0.114337,-0.539616
6.795833,0.252074,-0.106801,-0.528410
6.800000,0.264519,-0.126343,-0.555656
6.804167,0.262196,-0.101858,-0.533137
6.808333,0.245875,-0.117432,-0.550984
6.812500,0.214898,-0.107550,-0.555872
6.816667,0.235367,-0.113528,-0.559869
6.820833,0.226143,-0.116395,-0.554622
6.825000,0.203606,-0.122831,-0.567980
6.829167,0.194252,-0.121149,-0.576527
6.833333,0.185258,-0.109487,-0.570434
6.837500,0.171684,-0.103215,-0.604178
6.841667,0.157170,-0.109047,-0.585636
6.845833,0.128386,-0.110018,-0.591103
6.850000,0.126827,-0.093596,-0.602124
6.854167,0.148163,-0.110414,-0.613820
6.858333,0.102447,-0.112474,-0.599620
6.862500,0.086186,-0.084482,-0.603235
6.866667,0.104361,-0.081107,-0.615555
6.870833,0.107348,-0.075403,-0.631234
6.875000,0.075047,-0.073851,-0.619738
6.879167,0.047821,-0.090167,-0.638852
6.883333,0.056361,-0.096375,-0.624404
6.887500,0.041566,-0.092112,-0.642888
6.891667,0.052561,-0.072944,-0.636143
6.895833,0.011653,-0.076394,-0.666887
6.900000,0.042378,-0.091319,-0.673900
6.904167,0.017782,-0.074771,-0.669221
6.908333,0.020752,-0.089061,-0.675712
6.912500,0.023552,-0.084444,-0.676879
6.916667,0.022357,-0.097904,-0.674587
6.920833,0.031424,-0.104200,-0.681592
6.925000,-0.012560,-0.097077,-0.681340
6.929167,0.004164,-0.097936,-0.681456
6.933333,-0.014889,-0.100693,-0.693080
6.937500,0.025972,-0.116843,-0.704114
6.941667,-0.009821,-0.115792,-0.699246
6.945833,-0.006927,-0.120554,-0.716677
6.950000,0.010050,-0.116462,-0.705781
6.954167,-0.000388,-0.129789,-0.704915
6.958333,0.000709,-0.133857,-0.722588
6.962500,-0.010378,-0.116012,-0.738664
6.966667,-0.003834,-0.105002,-0.716980
6.970833,0.019415,-0.133364,-0.719905
6.975000,-0.026748,-0.112824,-0.729732
6.979167,-0.039054,-0.121438,-0.738670
6.983333,-0.005011,-0.126351,-0.756744
6.987500,-0.018420,-0.120598,-0.738577
6.991667,-0.018232,-0.118772,-0.742110
6.995833,-0.038280,-0.091198,-0.751305
7.000000,-0.031039,-0.111303,-0.768956
7.004167,-0.008514,-0.088145,-0.775668
7.008333,-0.004288,-0.089693,-0.768684
7.012500,-0.023005,-0.096963,-0.785782
7.016667,-0.030612,-0.099103,-0.767460
7.020833,0.015794,-0.085002,-0.762453
7.025000,0.001927,-0.076356,-0.778176
7.029167,-0.020286,-0.092813,-0.767618
7.033333,-0.011975,-0.072979,-0.777453
7.037500,-0.007701,-0.083968,-0.805146
7.041667,-0.005818,-0.082986,-0.798270
7.045833,-0.023705,-0.083166,-0.803441
7.050000,-0.027725,-0.094486,-0.810406
7.054167,0.004204,-0.092330,-0.802037
7.058333,0.000806,-0.093833,-0.819716
7.062500,-0.039474,-0.075069,-0.803156
7.066667,-0.014525,-0.089026,-0.817321
7.070833,-0.018660,-0.093232,-0.801177
7.075000,-0.018719,-0.104094,-0.832069
7.079167,-0.012002,-0.112112,-0.817284
7.083333,-0.033223,-0.094443,-0.821301
7.087500,-0.023136,-0.100266,-0.824208
7.091667,-0.016811,-0.106877,-0.820348
7.095833,-0.030129,-0.104119,-0.826474
7.100000,-0.020868,-0.110954,-0.840313
7.104167,0.005062,-0.100466,-0.826730
7.108333,-0.015421,-0.128593,-0.844416
7.112500,-0.033056,-0.125144,-0.865527
7.116667,-0.008266,-0.119743,-0.847366
7.120833,0.004351,-0.105115,-0.851363
7.125000,-0.012287,-0.097168,-0.854605
7.129167,-0.040310,-0.115895,-0.845725
7.133333,-0.029014,-0.102928,-0.879696
7.137500,-0.008017,-0.094929,-0.859693
7.141667,-0.017117,-0.084702,-0.860852
7.145833,-0.035288,-0.105091,-0.865854
7.150000,-0.035030,-0.094897,-0.862052
7.154167,0.008062,-0.087439,-0.875942
7.158333,-0.005719,-0.083048,-0.889089
7.162500,-0.019034,-0.076080,-0.897277
7.166667,-0.024043,-0.061469,-0.892453
7.170833,0.002500,-0.067893,-0.905655
7.175000,-0.004250,-0.084005,-0.890895
7.179167,-0.034992,-0.079575,-0.896653
7.183333,-0.026280,-0.073859,-0.908129
7.187500,-0.010348,-0.062673,-0.896162
7.191667,0.001890,-0.079044,-0.893584
7.195833,-0.025904,-0.078071,-0.920207
7.200000,-0.004870,-0.083543,-0.915407
7.204167,0.031085,-0.094140,-0.916726
7.208333,-0.004985,-0.084613,-0.905712
7.212500,0.009365,-0.098273,-0.897471
7.216667,0.009237,-0.090112,-0.920597
7.220833,0.038297,-0.080961,-0.915945
7.225000,0.026937,-0.094567,-0.918955
7.229167,0.025174,-0.107474,-0.925557
7.233333,0.050319,-0.113602,-0.917937
7.237500,0.059229,-0.107691,-0.942117
7.241667,0.040763,-0.099429,-0.916850
7.245833,0.024263,-0.110998,-0.927081
7.250000,0.053047,-0.097587,-0.913336
7.254167,0.050430,-0.104247,-0.918731
7.258333,0.031098,-0.090746,-0.922817
7.262500,0.031830,-0.089284,-0.925113
7.266667,0.037492,-0.095956,-0.933007
7.270833,0.027212,-0.078583,-0.939064
7.275000,0.033021,-0.074005,-0.942665
7.279167,0.013390,-0.085015,-0.953473
7.283333,-0.002462,-0.076664,-0.957551
7.287500,0.029131,-0.056794,-0.931120
7.291667,-0.009557,-0.052647,-0.958327
7.295833,-0.034074,-0.059175,-0.963502
7.300000,-0.003473,-0.032683,-0.952035
7.304167,-0.002460,-0.030899,-0.946775
7.308333,-0.031972,-0.048945,-0.956202
7.312500,-0.051212,-0.039201,-0.963650
7.316667,-0.027271,-0.037763,-0.949288
7.320833,-0.014870,-0.017673,-0.957361
7.325000,-0.038048,-0.015952,-0.961062
7.329167,-0.054888,-0.037433,-0.973381
7.333333,-0.047975,-0.027479,-0.945723
7.337500,-0.000294,-0.038773,-0.959601
7.341667,-0.014334,-0.020356,-0.963270
7.345833,-0.053533,-0.019063,-0.956758
7.350000,-0.035813,-0.036516,-0.971339
7.354167,-0.039481,-0.037135,-0.951889
7.358333,-0.034027,-0.048214,-0.963992
7.362500,-0.030573,-0.042348,-0.978059
7.366667,-0.022117,-0.057146,-0.965060
7.370833,-0.040748,-0.055702,-0.985727
7.375000,-0.047541,-0.036230,-0.955028
7.379167,-0.114405,-0.045079,-0.987767
7.383333,-0.133852,-0.045373,-0.976771
7.387500,-0.154824,-0.050031,-0.975755
7.391667,-0.177714,-0.063491,-0.987536
7.395833,-0.155197,-0.062946,-0.965492
7.400000,-0.083902,-0.051889,-0.964484
7.404167,0.078349,-0.048978,-0.962719
7.408333,0.210216,-0.037682,-0.989683
7.412500,0.439003,-0.029464,-0.982038
7.416667,0.687459,-0.038796,-0.984424
7.420833,0.900410,-0.041106,-0.995298
7.425000,1.061326,-0.016753,-0.965739
7.429167,1.049232,-0.007726,-0.976313
7.433333,0.956158,-0.017467,-0.967616
7.437500,0.763320,-0.003271,-0.982481
7.441667,0.507528,-0.003813,-0.972691
7.445833,0.237901,0.004049,-0.986453
7.450000,0.020102,0.037111,-0.971101
7.454167,-0.127089,0.031562,-0.993969
7.458333,-0.225332,0.055412,-0.968370
7.462500,-0.222418,0.068292,-0.977203
7.466667,-0.181662,0.097889,-0.988393
7.470833,-0.119562,0.091259,-0.992883
7.475000,-0.087020,0.112054,-0.975098
7.479167,-0.052442,0.151052,-0.993378
7.483333,-0.043837,0.163071,-0.976546
7.487500,0.001703,0.169366,-0.974942
7.491667,-0.040251,0.181387,-0.989336
7.495833,-0.015810,0.194321,-0.967350
7.500000,-0.012354,0.171890,-0.975567
7.504167,-0.017104,0.187554,-0.964574
7.508333,-0.017721,0.183165,-0.985495
7.512500,-0.002812,0.185649,-0.961739
7.516667,0.017416,0.162538,-0.967757
7.520833,0.002843,0.159332,-0.980102
7.525000,-0.006673,0.120869,-0.991880
7.529167,0.021693,0.124169,-0.963765
7.533333,0.019614,0.092058,-0.967749
7.537500,0.050404,0.082462,-0.991702
7.541667,0.044046,0.051819,-0.969058
7.545833,0.026743,0.048221,-0.962882
7.550000,0.056074,0.026766,-0.969773
7.554167,0.065004,0.011861,-0.964171
7.558333,0.069236,-0.005740,-0.958285
7.562500,0.081845,0.001510,-0.973167
7.566667,0.090969,-0.002798,-0.957062
7.570833,0.120527,-0.012418,-0.961272
7.575000,0.131055,-0.015724,-0.972330
7.579167,0.138102,-0.028340,-0.965602
7.583333,0.156434,-0.018307,-0.955142
7.587500,0.175059,-0.019384,-0.962304
7.591667,0.189012,-0.023771,-0.946823
7.595833,0.184084,-0.033269,-0.948515
7.600000,0.214351,-0.036166,-0.953785
7.604167,0.231248,-0.029962,-0.952848
7.608333,0.207546,-0.014273,-0.965555
7.612500,0.231889,-0.028580,-0.968814
7.616667,0.222639,-0.026263,-0.943918
7.620833,0.270540,-0.028586,-0.963546
7.625000,0.274308,-0.034646,-0.964702
7.629167,0.267240,-0.046906,-0.967093
7.633333,0.270134,-0.038260,-0.961459
7.637500,0.298215,-0.035996,-0.936344
7.641667,0.274902,-0.055267,-0.956853
7.645833,0.257662,-0.044618,-0.937844
7.650000,0.264699,-0.041172,-0.947216
7.654167,0.266558,-0.057904,-0.937792
7.658333,0.265515,-0.056889,-0.942702
7.662500,0.251636,-0.071874,-0.924036
7.666667,0.263320,-0.050439,-0.928779
7.670833,0.271786,-0.051851,-0.939209
7.675000,0.234173,-0.069875,-0.937109
7.679167,0.209009,-0.056420,-0.928559
7.683333,0.237097,-0.071569,-0.916006
7.687500,0.213052,-0.055151,-0.924514
7.691667,0.215605,-0.067341,-0.922803
7.695833,0.197247,-0.071653,-0.938299
7.700000,0.201403,-0.063174,-0.928102
7.704167,0.200109,-0.042832,-0.929705
7.708333,0.169535,-0.052499,-0.915059
7.712500,0.138644,-0.054808,-0.910806
7.716667,0.143742,-0.037171,-0.930076
7.720833,0.118745,-0.041051,-0.924103
7.725000,0.103315,-0.032300,-0.894071
7.729167,0.076001,-0.022803,-0.896387
7.733333,0.100289,-0.025193,-0.903729
7.737500,0.102706,-0.017320,-0.898858
7.741667,0.065764,-0.033442,-0.911898
7.745833,0.041119,-0.030434,-0.908986
7.750000,0.037072,-0.024559,-0.910829
7.754167,0.056977,-0.020553,-0.897662
7.758333,0.025858,-0.016329,-0.886124
7.762500,0.007184,-0.019795,-0.886440
7.766667,0.004330,-0.016046,-0.901771
7.770833,0.013713,-0.045265,-0.884524
7.775000,-0.004851,-0.025964,-0.895957
7.779167,-0.003293,-0.026712,-0.875500
7.783333,0.007533,-0.047880,-0.884868
7.787500,-0.008534,-0.056325,-0.878495
7.791667,-0.024582,-0.034255,-0.869854
7.795833,-0.043899,-0.062993,-0.881017
7.800000,-0.025185,-0.042035,-0.871374
7.804167,-0.022969,-0.071149,-0.870793
7.808333,-0.023525,-0.063902,-0.852833
7.812500,-0.043532,-0.052178,-0.859726
7.816667,-0.019241,-0.047279,-0.853228
7.820833,-0.014300,-0.050969,-0.852935
7.825000,-0.037988,-0.054741,-0.853438
7.829167,-0.037803,-0.072152,-0.857762
7.833333,-0.028138,-0.053936,-0.847753
7.837500,-0.034963,-0.049526,-0.848894
7.841667,-0.054714,-0.065554,-0.820993
7.845833,-0.077003,-0.045458,-0.844471
7.850000,-0.031735,-0.059422,-0.821080
7.854167,-0.035381,-0.052720,-0.810917
7.858333,-0.044191,-0.042615,-0.806712
7.862500,-0.054680,-0.040555,-0.828504
7.866667,-0.047441,-0.034115,-0.815084
7.870833,-0.031321,-0.024676,-0.806480
7.875000,-0.046192,-0.028352,-0.788798
7.879167,-0.058748,-0.020682,-0.791559
7.883333,-0.058546,-0.025304,-0.780390
7.887500,-0.039892,-0.029049,-0.800607
7.891667,-0.053752,-0.020664,-0.778434
7.895833,-0.073778,-0.030374,-0.803704
7.900000,-0.046308,-0.031701,-0.766304
7.904167,-0.027299,-0.030754,-0.768951
7.908333,-0.047698,-0.018767,-0.790348
7.912500,-0.054959,-0.024496,-0.772369
7.916667,-0.039075,-0.038661,-0.760365
7.920833,-0.032774,-0.037016,-0.765226
7.925000,-0.055092,-0.025940,-0.745163
7.929167,-0.076150,-0.045841,-0.741718
7.933333,-0.054592,-0.028075,-0.744812
7.937500,-0.022550,-0.054450,-0.747046
7.941667,-0.045846,-0.054095,-0.737593
7.945833,-0.045191,-0.061613,-0.747667
7.950000,-0.045619,-0.046434,-0.742237
7.954167,-0.020542,-0.059169,-0.729967
7.958333,-0.068444,-0.049199,-0.734922
7.962500,-0.070952,-0.051577,-0.708630
7.966667,-0.051475,-0.055324,-0.716338
7.970833,-0.024428,-0.048721,-0.712034
7.975000,-0.042773,-0.036551,-0.715353
7.979167,-0.079431,-0.060320,-0.694381
7.983333,-0.063507,-0.041246,-0.691996
7.987500,-0.056517,-0.054157,-0.690547
7.991667,-0.035255,-0.031486,-0.708579
7.995833,-0.066366,-0.027319,-0.688640
8.000000,-0.058014,-0.043743,-0.678233
8.004167,-0.057645,-0.036002,-0.697651
8.008333,-0.068764,-0.017036,-0.680576
8.012500,-0.075240,-0.019581,-0.657555
8.016667,-0.063685,-0.002619,-0.657413
8.020833,-0.037267,-0.014861,-0.672903
8.025000,-0.061535,0.001801,-0.659162
8.029167,-0.056097,0.006240,-0.664608
8.033333,-0.057734,-0.016944,-0.660224
8.037500,-0.046024,-0.005297,-0.640105
8.041667,-0.059578,-0.004146,-0.643858
8.045833,-0.041826,-0.019119,-0.650766
8.050000,-0.035652,-0.022286,-0.625916
8.054167,-0.023975,-0.004012,-0.609288
8.058333,-0.037505,-0.016443,-0.627781
8.062500,-0.059382,-0.003788,-0.628256
8.066667,-0.061444,-0.019336,-0.600436
8.070833,-0.043135,-0.012158,-0.623048
8.075000,-0.040421,-0.019764,-0.600575
8.079167,-0.038531,-0.043879,-0.588547
8.083333,-0.052896,-0.029431,-0.586115
8.087500,-0.016706,-0.049049,-0.595957
8.091667,-0.030613,-0.043400,-0.592558
8.095833,-0.051814,-0.047465,-0.559561
8.100000,-0.023199,-0.047215,-0.553900
8.104167,-0.010903,-0.039151,-0.569056
8.108333,-0.003938,-0.027910,-0.557148
8.112500,0.013334,-0.028956,-0.565465
8.116667,0.025007,-0.042272,-0.559015
8.120833,0.028426,-0.034351,-0.531645
8.125000,0.008687,-0.035787,-0.538748
8.129167,0.017213,-0.019206,-0.527509
8.133333,0.024692,-0.024864,-0.516558
8.137500,0.036731,-0.011601,-0.509334
8.141667,0.032271,-0.017254,-0.517379
8.145833,-0.001777,-0.006412,-0.516945
8.150000,0.041089,-0.007114,-0.509719
8.154167,0.016472,0.004605,-0.507063
8.158333,0.028827,-0.008791,-0.480270
8.162500,-0.015373,0.001128,-0.506914
8.166667,0.010826,0.022982,-0.498508
8.170833,0.024112,0.034141,-0.473888
8.175000,-0.004310,0.034996,-0.463392
8.179167,-0.021332,0.040723,-0.460564
8.183333,-0.031905,0.029580,-0.453205
8.187500,-0.018390,0.037147,-0.455965
8.191667,-0.023356,0.028479,-0.461402
8.195833,-0.043844,0.031645,-0.443185
8.200000,-0.029416,0.039206,-0.436246
8.204167,-0.039513,0.024559,-0.428850
8.208333,-0.031773,0.039663,-0.424377
8.212500,-0.061394,0.036489,-0.408704
8.216667,-0.031952,0.027913,-0.421392
8.220833,-0.032397,0.034466,-0.423770
8.225000,-0.065199,0.017025,-0.410343
8.229167,-0.043824,0.016938,-0.414967
8.233333,-0.045926,0.012349,-0.413344
8.237500,-0.040780,0.028007,-0.392963
8.241667,-0.061482,0.008751,-0.374236
8.245833,-0.055099,0.026484,-0.393038
8.250000,-0.040348,0.012194,-0.359500
8.254167,-0.025125,0.020249,-0.380145
8.258333,-0.041523,0.009030,-0.375721
8.262500,-0.073331,0.017849,-0.359611
8.266667,-0.072380,0.024294,-0.339034
8.270833,-0.082474,0.040440,-0.335703
8.275000,-0.128926,0.035718,-0.324855
8.279167,-0.192760,0.028935,-0.344897
8.283333,-0.189433,0.028730,-0.335313
8.287500,-0.160104,0.028206,-0.317987
8.291667,-0.071115,0.046869,-0.314537
8.295833,0.069906,0.041488,-0.308774
8.300000,0.265554,0.058613,-0.319121
8.304167,0.482344,0.066086,-0.301544
8.308333,0.697812,0.067615,-0.285843
8.312500,0.898556,0.070331,-0.288018
8.316667,1.045619,0.064900,-0.265497
8.320833,1.090636,0.068051,-0.261214
8.325000,0.951917,0.082980,-0.265936
8.329167,0.687988,0.101810,-0.258484
8.333333,0.437900,0.090692,-0.252879
8.337500,0.203963,0.117113,-0.243623
8.341667,-0.030946,0.114797,-0.227644
8.345833,-0.204272,0.140637,-0.219851
8.350000,-0.221910,0.132388,-0.219596
8.354167,-0.218432,0.143254,-0.231254
8.358333,-0.173717,0.179091,-0.216349
8.362500,-0.112638,0.187151,-0.207211
8.366667,-0.056863,0.184987,-0.195146
8.370833,-0.015646,0.213704,-0.184972
8.375000,-0.022614,0.216308,-0.194420
8.379167,-0.020848,0.229632,-0.173122
8.383333,-0.011548,0.236982,-0.178690
8.387500,-0.021061,0.248090,-0.190110
8.391667,-0.031726,0.249205,-0.152294
8.395833,-0.036365,0.258239,-0.164209
8.400000,-0.012593,0.238498,-0.161031
8.404167,-0.001569,0.225048,-0.139530
8.408333,0.011222,0.228892,-0.159524
8.412500,0.000617,0.218589,-0.141547
8.416667,0.011983,0.198015,-0.128567
8.420833,0.015286,0.183709,-0.139603
8.425000,0.019276,0.169191,-0.113531
8.429167,0.017971,0.163891,-0.109528
8.433333,0.029833,0.132734,-0.112311
8.437500,0.060953,0.122208,-0.111383
8.441667,0.052321,0.105162,-0.078065
8.445833,0.061919,0.091932,-0.089256
8.450000,0.096722,0.080233,-0.082236
8.454167,0.127636,0.070355,-0.062268
8.458333,0.117990,0.072484,-0.076627
8.462500,0.111761,0.071906,-0.064906
8.466667,0.116936,0.067298,-0.041931
8.470833,0.168576,0.058720,-0.049555
8.475000,0.151998,0.059096,-0.026121
8.479167,0.156515,0.060199,-0.048774
8.483333,0.201303,0.038522,-0.039044
8.487500,0.209293,0.052185,-0.028192
8.491667,0.219201,0.047955,-0.020853
8.495833,0.191034,0.030896,-0.009094
8.500000,0.250516,0.024266,-0.010832
8.504167,0.236817,0.038106,-0.004873
8.508333,0.253038,0.030504,0.019062
8.512500,0.264815,0.035057,0.021116
8.516667,0.281894,0.032638,0.014424
8.520833,0.297470,0.007298,0.028534
8.525000,0.277287,0.011602,0.042670
8.529167,0.264219,0.018522,0.038127
8.533333,0.278626,0.001237,0.050792
8.537500,0.300982,0.007938,0.065549
8.541667,0.278642,0.005533,0.053723
8.545833,0.278569,0.023017,0.068556
8.550000,0.276442,0.007086,0.081470
8.554167,0.291716,0.016860,0.078089
8.558333,0.282063,0.014349,0.080607
8.562500,0.250356,0.032841,0.087777
8.566667,0.278054,0.020139,0.092930
8.570833,0.281407,0.027546,0.115641
8.575000,0.251656,0.027197,0.117357
8.579167,0.217001,0.044317,0.104755
8.583333,0.212463,0.047535,0.140453
8.587500,0.229670,0.045012,0.124237
8.591667,0.198613,0.040598,0.137531
8.595833,0.181953,0.052955,0.158122
8.600000,0.162506,0.064362,0.138046
8.604167,0.192041,0.055713,0.172535
8.608333,0.134044,0.063960,0.174468
8.612500,0.145875,0.054315,0.153120
8.616667,0.119299,0.048843,0.181187
8.620833,0.146028,0.055959,0.168440
8.625000,0.083531,0.045151,0.190459
8.629167,0.066287,0.036110,0.196454
8.633333,0.074027,0.045300,0.212583
8.637500,0.076021,0.043726,0.200861
8.641667,0.076147,0.047352,0.205482
8.645833,0.038548,0.035361,0.212567
8.650000,0.058037,0.016574,0.211859
8.654167,0.056412,0.022114,0.222210
8.658333,0.034285,0.022099,0.234843
8.662500,0.031523,0.023223,0.248991
8.666667,0.013442,0.014573,0.253974
8.670833,0.037885,0.026798,0.261643
8.675000,-0.004309,0.001136,0.266592
8.679167,-0.012223,0.008230,0.279161
8.683333,0.010404,0.010164,0.273812
8.687500,0.020116,0.022155,0.296063
8.691667,0.003865,0.013767,0.301690
8.695833,-0.002306,0.032033,0.311896
8.700000,-0.011628,0.036750,0.293116
8.704167,0.014588,0.024471,0.327935
8.708333,-0.008717,0.038187,0.310447
8.712500,-0.020117,0.024313,0.329724
8.716667,-0.025583,0.030702,0.323934
8.720833,-0.013045,0.050814,0.321310
8.725000,-0.002917,0.050877,0.328343
8.729167,-0.030355,0.039896,0.359347
8.733333,-0.035012,0.043300,0.369462
8.737500,-0.002087,0.041528,0.359257
8.741667,-0.030610,0.049225,0.357822
8.745833,-0.051900,0.057530,0.374948
8.750000,-0.015386,0.058071,0.374430
8.754167,-0.017132,0.060489,0.380422
8.758333,-0.029600,0.050787,0.405753
8.762500,-0.018613,0.046214,0.409813
8.766667,-0.019861,0.058922,0.396810
8.770833,-0.003514,0.051488,0.405394
8.775000,-0.033523,0.047939,0.415653
8.779167,-0.036775,0.044109,0.418595
8.783333,-0.036650,0.051631,0.436659
8.787500,-0.019009,0.043283,0.451942
8.791667,-0.029562,0.037707,0.426647
8.795833,-0.021196,0.040084,0.446387
8.800000,-0.023777,0.025872,0.459974
8.804167,-0.001915,0.017783,0.462904
8.808333,-0.022010,0.036654,0.470101
8.812500,-0.036479,0.033729,0.460863
8.816667,-0.015077,0.011391,0.474072
8.820833,-0.005902,0.020152,0.471770
8.825000,-0.004348,0.020419,0.478847
8.829167,-0.030956,0.032241,0.500071
8.833333,-0.003837,0.036401,0.488884
8.837500,-0.011234,0.036038,0.523869
8.841667,-0.026923,0.036253,0.503428
8.845833,-0.026356,0.030249,0.530702
8.850000,-0.025586,0.042171,0.522062
8.854167,-0.011400,0.053894,0.521995
8.858333,-0.033461,0.059826,0.545227
8.862500,-0.042152,0.059507,0.554915
8.866667,-0.006051,0.071029,0.539136
8.870833,0.001671,0.052995,0.557398
8.875000,-0.015734,0.072090,0.563624
8.879167,-0.042953,0.065151,0.565819
8.883333,-0.019935,0.074327,0.585313
8.887500,-0.006299,0.059449,0.576165
8.891667,-0.003774,0.057274,0.584887
8.895833,-0.030719,0.062499,0.585408
8.900000,-0.018997,0.065212,0.584681
8.904167,-0.008918,0.064617,0.595798
8.908333,-0.017383,0.072320,0.601364
8.912500,-0.031416,0.067134,0.614535
8.916667,-0.009645,0.071954,0.635794
8.920833,-0.008017,0.045608,0.631378
8.925000,0.005658,0.067661,0.639120
8.929167,-0.009587,0.061887,0.644030
8.933333,0.006372,0.047353,0.628777
8.937500,0.013043,0.032112,0.639801
8.941667,-0.018482,0.043143,0.650725
8.945833,-0.002189,0.026149,0.659676
8.950000,-0.006846,0.028306,0.659208
8.954167,0.013129,0.047642,0.682800
8.958333,-0.007250,0.025191,0.683715
8.962500,-0.002848,0.028526,0.690811
8.966667,0.022120,0.026483,0.694993
8.970833,0.024355,0.045435,0.690078
8.975000,0.013767,0.032030,0.710206
8.979167,0.000151,0.037187,0.688060
8.983333,0.052530,0.039043,0.714069
8.987500,0.055611,0.040830,0.727561
8.991667,0.034698,0.059884,0.715555
8.995833,0.029859,0.054897,0.728432
9.000000,0.055126,0.070334,0.740564
9.004167,0.073242,0.071855,0.723373
9.008333,0.089568,0.075114,0.734032
9.012500,0.076788,0.073052,0.740964
9.016667,0.081077,0.070928,0.751687
9.020833,0.090557,0.062971,0.752181
9.025000,0.058609,0.076751,0.754015
9.029167,0.055436,0.070191,0.773475
9.033333,0.072720,0.068515,0.779834
9.037500,0.074462,0.079827,0.787618
9.041667,0.041483,0.090764,0.786596
9.045833,0.045744,0.091928,0.786930
9.050000,0.027875,0.071337,0.804103
9.054167,0.050040,0.090082,0.798265
9.058333,0.020989,0.076069,0.787321
9.062500,0.027436,0.095512,0.797118
9.066667,0.036413,0.094522,0.799299
9.070833,0.020104,0.096891,0.811947
9.075000,0.029463,0.068673,0.811446
9.079167,0.015580,0.072056,0.805703
9.083333,-0.002145,0.095629,0.824655
9.087500,0.007712,0.089104,0.830472
9.091667,-0.000929,0.082743,0.827689
9.095833,-0.001247,0.093421,0.852856
9.100000,-0.000098,0.075759,0.858768
9.104167,0.002974,0.071139,0.836008
9.108333,0.001196,0.081080,0.844794
9.112500,-0.001331,0.078741,0.860242
9.116667,0.011083,0.096051,0.848215
9.120833,0.006603,0.096792,0.854058
9.125000,-0.009808,0.106488,0.884954
9.129167,-0.018800,0.103557,0.862027
9.133333,-0.014929,0.116222,0.872689
9.137500,-0.002054,0.101267,0.869913
9.141667,0.000664,0.104881,0.896694
9.145833,-0.049072,0.130917,0.880931
9.150000,-0.042666,0.117157,0.901140
9.154167,-0.080776,0.126319,0.887933
9.158333,-0.149880,0.125085,0.914481
9.162500,-0.136123,0.118816,0.902607
9.166667,-0.087771,0.123238,0.897875
9.170833,0.022618,0.143898,0.920376
9.175000,0.130210,0.149122,0.932079
9.179167,0.326195,0.132870,0.911787
9.183333,0.559568,0.140925,0.929679
9.187500,0.801763,0.128009,0.919414
9.191667,1.010342,0.125386,0.925361
9.195833,1.102903,0.147170,0.948014
9.200000,1.087095,0.131865,0.952182
9.204167,0.947447,0.137477,0.953495
9.208333,0.715078,0.137526,0.947563
9.212500,0.424750,0.123580,0.942089
9.216667,0.194155,0.117621,0.964069
9.220833,-0.000544,0.116781,0.981928
9.225000,-0.147073,0.119592,0.970931
9.229167,-0.196058,0.147216,0.979918
9.233333,-0.178316,0.156881,0.968053
9.237500,-0.098524,0.147882,0.996238
9.241667,-0.043938,0.158259,0.968511
9.245833,-0.027491,0.167699,0.977377
9.250000,0.032600,0.194262,0.994436
9.254167,0.027841,0.210172,0.982462
9.258333,0.022776,0.228364,0.987928
9.262500,0.003887,0.246078,1.005195
9.266667,0.025679,0.276177,1.017303
9.270833,0.067094,0.299681,1.016250
9.275000,0.030630,0.307642,1.016161
9.279167,0.050267,0.307608,0.996403
9.283333,0.069200,0.343032,1.009701
9.287500,0.072789,0.330395,1.006886
9.291667,0.069098,0.339289,1.038035
9.295833,0.052020,0.349966,1.011849
9.300000,0.074502,0.327892,1.017001
9.304167,0.081029,0.323971,1.024706
9.308333,0.081790,0.330986,1.046612
9.312500,0.095234,0.301381,1.040832
9.316667,0.101980,0.278568,1.050199
9.320833,0.146191,0.265741,1.054613
9.325000,0.120899,0.245325,1.030226
9.329167,0.136438,0.237555,1.052599
9.333333,0.169842,0.203767,1.066919
9.337500,0.196610,0.198741,1.048204
9.341667,0.171395,0.196186,1.074795
9.345833,0.167278,0.154214,1.064877
9.350000,0.191091,0.146935,1.073954
9.354167,0.230694,0.142114,1.069366
9.358333,0.245479,0.116335,1.084533
9.362500,0.222497,0.108064,1.088723
9.366667,0.238159,0.112426,1.079515
9.370833,0.275913,0.106669,1.073906
9.375000,0.284373,0.082912,1.081886
9.379167,0.268950,0.082805,1.087070
9.383333,0.299267,0.088284,1.075802
9.387500,0.300051,0.091736,1.084240
9.391667,0.326937,0.087639,1.081549
9.395833,0.321563,0.070017,1.077091
9.400000,0.325927,0.087275,1.075790
9.404167,0.328364,0.077230,1.085141
9.408333,0.340460,0.079301,1.086108
9.412500,0.341523,0.089075,1.089078
9.416667,0.335833,0.095784,1.087483
9.420833,0.364214,0.094969,1.102226
9.425000,0.323443,0.113736,1.105348
9.429167,0.324014,0.101087,1.124428
9.433333,0.333162,0.117219,1.117271
9.437500,0.338135,0.113604,1.098453
9.441667,0.310773,0.108191,1.097609
9.445833,0.297274,0.128743,1.101243
9.450000,0.315530,0.120991,1.128774
9.454167,0.318082,0.132952,1.134115
9.458333,0.293980,0.129482,1.115073
9.462500,0.263459,0.110963,1.134565
9.466667,0.252970,0.115747,1.129051
9.470833,0.248366,0.126065,1.116502
9.475000,0.244343,0.115186,1.115457
9.479167,0.207129,0.130665,1.128974
9.483333,0.199628,0.102356,1.137108
9.487500,0.211337,0.097490,1.130273
9.491667,0.201168,0.107456,1.138400
9.495833,0.183249,0.113977,1.146225
9.500000,0.188018,0.100194,1.122163
9.504167,0.164630,0.099544,1.127744
9.508333,0.142318,0.102616,1.131226
9.512500,0.143385,0.077777,1.123215
9.516667,0.118229,0.080497,1.138741
9.520833,0.115063,0.088869,1.140450
9.525000,0.091850,0.090824,1.144859
9.529167,0.079586,0.084417,1.131893
9.533333,0.111844,0.076832,1.148706
9.537500,0.089894,0.081202,1.147074
9.541667,0.060650,0.094134,1.153431
9.545833,0.065296,0.079167,1.137361
9.550000,0.056475,0.077587,1.147729
9.554167,0.084710,0.078911,1.145235
9.558333,0.054613,0.077855,1.138430
9.562500,0.061850,0.080521,1.143449
9.566667,0.071515,0.097402,1.163879
9.570833,0.060012,0.109407,1.137938
9.575000,0.064230,0.096878,1.140290
9.579167,0.029266,0.112793,1.140482
9.583333,0.041423,0.099620,1.166753
9.587500,0.038119,0.114255,1.165635
9.591667,0.049816,0.126860,1.149521
9.595833,0.013332,0.107003,1.152457
9.600000,0.048067,0.121335,1.160706
9.604167,0.052618,0.119637,1.142181
9.608333,0.042810,0.118412,1.151614
9.612500,0.032800,0.113627,1.170853
9.616667,0.023436,0.112936,1.138740
9.620833,0.065543,0.116881,1.156480
9.625000,0.048090,0.102339,1.163673
9.629167,0.041442,0.100037,1.172579
9.633333,0.044174,0.112784,1.144926
9.637500,0.062052,0.115351,1.156167
9.641667,0.027594,0.114327,1.138930
9.645833,0.008954,0.113476,1.140527
9.650000,0.019163,0.096338,1.156159
9.654167,0.036476,0.080145,1.158080
9.658333,0.041514,0.098261,1.144506
9.662500,0.025007,0.088532,1.158684
9.666667,0.051759,0.096437,1.171959
9.670833,0.047847,0.091617,1.155754
9.675000,0.029012,0.091662,1.141909
9.679167,0.031724,0.089072,1.170906
9.683333,0.043364,0.073734,1.167719
9.687500,0.043648,0.077588,1.153561
9.691667,0.029517,0.099368,1.141998
9.695833,0.034922,0.075767,1.157753
9.700000,0.033602,0.091682,1.153097
9.704167,0.066699,0.089354,1.135293
9.708333,0.041450,0.096067,1.141815
9.712500,0.034618,0.102117,1.153415
9.716667,0.028564,0.112664,1.134099
9.720833,0.047550,0.114187,1.143763
9.725000,0.049500,0.111319,1.156710
9.729167,0.040426,0.128998,1.159517
9.733333,0.019545,0.121298,1.133106
9.737500,0.060633,0.131583,1.148251
9.741667,0.041379,0.126434,1.155533
9.745833,0.043171,0.140809,1.126903
9.750000,0.052277,0.136735,1.123964
9.754167,0.064967,0.118517,1.140987
9.758333,0.042550,0.120737,1.152972
9.762500,0.019760,0.134553,1.150079
9.766667,0.049053,0.114222,1.147601
9.770833,0.059144,0.126582,1.139656
9.775000,0.038482,0.126410,1.135721
9.779167,0.037799,0.110023,1.122258
9.783333,0.032887,0.115519,1.147741
9.787500,0.057846,0.106752,1.119148
9.791667,0.055459,0.108577,1.120480
9.795833,0.017889,0.105854,1.109479
9.800000,0.059636,0.098480,1.140916
9.804167,0.069600,0.096742,1.125479
9.808333,0.061214,0.083887,1.119002
9.812500,0.034314,0.097962,1.108048
9.816667,0.062069,0.080762,1.127827
9.820833,0.076935,0.089610,1.127296
9.825000,0.055412,0.088523,1.123371
9.829167,0.039643,0.075635,1.101489
9.833333,0.045264,0.079345,1.104933
9.837500,0.068999,0.080647,1.108762
9.841667,0.053587,0.108107,1.120510
9.845833,0.044770,0.093798,1.094242
9.850000,0.057325,0.109341,1.092273
9.854167,0.087050,0.102926,1.102618
9.858333,0.092731,0.109444,1.093085
9.862500,0.066115,0.118066,1.111586
9.866667,0.078709,0.113184,1.095347
9.870833,0.098195,0.107166,1.079300
9.875000,0.088955,0.129117,1.087911
9.879167,0.087459,0.118325,1.085227
9.883333,0.107738,0.135400,1.093448
9.887500,0.114103,0.119947,1.088628
9.891667,0.120782,0.126722,1.069856
9.895833,0.106818,0.139098,1.071912
9.900000,0.120489,0.140786,1.067284
9.904167,0.134728,0.142943,1.071582
9.908333,0.102057,0.131261,1.078898
9.912500,0.107535,0.146990,1.054183
9.916667,0.093436,0.124714,1.050451
9.920833,0.115402,0.132620,1.070275
9.925000,0.118035,0.137426,1.068905
9.929167,0.070603,0.139897,1.069463
9.933333,0.095829,0.131072,1.071153
9.937500,0.089223,0.140871,1.062413
9.941667,0.073028,0.123808,1.040933
9.945833,0.053465,0.138044,1.053936
9.950000,0.071260,0.119618,1.034530
9.954167,0.068444,0.126706,1.023622
9.958333,0.043435,0.141624,1.042378
9.962500,0.036013,0.140250,1.040555
9.966667,0.055884,0.135757,1.035753
9.970833,0.045716,0.134484,1.041942
9.975000,0.050777,0.123472,1.016758
9.979167,0.054260,0.125305,1.006742
9.983333,0.033107,0.128853,1.036097
9.987500,0.069565,0.144725,1.005469
9.991667,0.056437,0.147551,1.027978
9.995833,0.020763,0.152855,1.014688
10.000000,0.066416,0.164886,0.993262
10.004167,0.063465,0.161929,1.019783
10.008333,0.051819,0.176231,0.989372
10.012500,0.036500,0.172836,0.980660
10.016667,0.040587,0.184000,0.976729
10.020833,0.046572,0.185728,0.972145
10.025000,0.043746,0.181778,0.972857
10.029167,0.003683,0.170697,0.970634
10.033333,-0.024886,0.178111,0.985871
10.037500,-0.048741,0.190093,0.973510
10.041667,-0.116924,0.190552,0.955443
10.045833,-0.104671,0.177250,0.950900
10.050000,0.009879,0.182485,0.965114
10.054167,0.151618,0.183861,0.973696
10.058333,0.291018,0.187613,0.951936
10.062500,0.519039,0.176711,0.939447
10.066667,0.743272,0.181609,0.956030
10.070833,0.976753,0.168098,0.947570
10.075000,1.143845,0.182217,0.952997
10.079167,1.167989,0.179408,0.932878
10.083333,1.051089,0.198184,0.940133
10.087500,0.851394,0.203818,0.944494
10.091667,0.599368,0.200292,0.934386
10.095833,0.305614,0.216250,0.903429
10.100000,0.113784,0.231183,0.907593
10.104167,-0.032262,0.250211,0.906714
10.108333,-0.126266,0.278350,0.907810
10.112500,-0.153570,0.289701,0.886499
10.116667,-0.086070,0.318728,0.915045
10.120833,-0.022062,0.317992,0.881825
10.125000,0.019959,0.336222,0.895660
10.129167,0.020101,0.347095,0.880695
10.133333,0.057699,0.376786,0.874794
10.137500,0.086690,0.369587,0.867354
10.141667,0.051001,0.386223,0.863704
10.145833,0.042646,0.366083,0.854713
10.150000,0.085975,0.384532,0.850755
10.154167,0.076961,0.354692,0.852376
10.158333,0.076111,0.359195,0.870490
10.162500,0.060239,0.334911,0.859457
10.166667,0.102410,0.321294,0.828136
10.170833,0.107160,0.303701,0.832474
10.175000,0.107745,0.276880,0.846196
10.179167,0.104500,0.261671,0.831385
10.183333,0.131051,0.252566,0.837143
10.187500,0.146174,0.250276,0.813700
10.191667,0.136744,0.230147,0.811687
10.195833,0.135217,0.216212,0.796588
10.200000,0.139099,0.182902,0.806284
10.204167,0.168659,0.166095,0.802617
10.208333,0.192746,0.168402,0.810281
10.212500,0.183617,0.157402,0.800440
10.216667,0.188119,0.145078,0.773836
10.220833,0.229649,0.144308,0.775162
10.225000,0.202009,0.133307,0.775211
10.229167,0.236327,0.117855,0.766024
10.233333,0.236080,0.127139,0.751047
10.237500,0.252188,0.111223,0.767407
10.241667,0.258121,0.112181,0.753005
10.245833,0.252755,0.115651,0.767846
10.250000,0.305304,0.101552,0.762317
10.254167,0.312346,0.101640,0.734628
10.258333,0.321135,0.104704,0.719218
10.262500,0.307507,0.110352,0.742742
10.266667,0.343297,0.126499,0.738142
10.270833,0.374379,0.118045,0.721107
10.275000,0.340263,0.116708,0.731137
10.279167,0.358334,0.120304,0.696776
10.283333,0.373816,0.127081,0.701814
10.287500,0.369936,0.119996,0.693399
10.291667,0.365300,0.127534,0.687524
10.295833,0.350872,0.126514,0.694138
10.300000,0.371526,0.129840,0.694930
10.304167,0.366323,0.156685,0.693649
10.308333,0.376055,0.141771,0.671918
10.312500,0.342597,0.141783,0.677739
10.316667,0.359905,0.147086,0.656835
10.320833,0.367438,0.148689,0.659622
10.325000,0.334152,0.155120,0.650933
10.329167,0.313192,0.156347,0.641832
10.333333,0.323993,0.141289,0.627395
10.337500,0.336283,0.144934,0.631848
10.341667,0.289099,0.136025,0.638580
10.345833,0.276322,0.132948,0.633242
10.350000,0.264507,0.139925,0.617577
10.354167,0.294795,0.127657,0.619155
10.358333,0.274881,0.122000,0.589119
10.362500,0.233581,0.129916,0.606977
10.366667,0.249188,0.116969,0.593119
10.370833,0.243018,0.126587,0.599108
10.375000,0.220592,0.102476,0.593711
10.379167,0.198003,0.104028,0.574502
10.383333,0.181573,0.098831,0.552042
10.387500,0.183482,0.095135,0.549323
10.391667,0.150801,0.109939,0.545578
10.395833,0.148525,0.093320,0.532827
10.400000,0.135900,0.105920,0.547986
10.404167,0.126828,0.100955,0.538395
10.408333,0.143072,0.107167,0.533615
10.412500,0.100575,0.105646,0.541300
10.416667,0.112405,0.127328,0.511943
10.420833,0.107525,0.115561,0.513503
10.425000,0.102945,0.113593,0.501085
10.429167,0.095520,0.110623,0.507730
10.433333,0.066928,0.124040,0.485878
10.437500,0.077659,0.144256,0.486187
10.441667,0.088543,0.128405,0.488132
10.445833,0.070576,0.145719,0.461481
10.450000,0.067665,0.146626,0.479119
10.454167,0.092727,0.134548,0.454293
10.458333,0.062969,0.152539,0.448129
10.462500,0.048627,0.157355,0.454419
10.466667,0.042892,0.139932,0.439620
10.470833,0.087921,0.130171,0.456228
10.475000,0.066393,0.144398,0.448294
10.479167,0.041168,0.144519,0.410150
10.483333,0.036907,0.123408,0.426364
10.487500,0.066779,0.141445,0.413412
10.491667,0.034662,0.138313,0.397816
10.495833,0.049138,0.126508,0.392925
10.500000,0.056437,0.119678,0.402088
10.504167,0.053441,0.123720,0.404702
10.508333,0.043594,0.112121,0.396498
10.512500,0.021357,0.121196,0.376430
10.516667,0.064145,0.094205,0.366601
10.520833,0.046648,0.114053,0.345631
10.525000,0.036274,0.113364,0.365494
10.529167,0.050079,0.103325,0.336332
10.533333,0.061548,0.089425,0.351510
10.537500,0.054702,0.114054,0.325277
10.541667,0.029239,0.092069,0.334036
10.545833,0.030957,0.100464,0.337904
10.550000,0.047691,0.097915,0.314011
10.554167,0.046422,0.118341,0.301321
10.558333,0.050954,0.116329,0.301821
10.562500,0.043078,0.125846,0.312849
10.566667,0.055098,0.119489,0.280553
10.570833,0.041885,0.112311,0.274964
10.575000,0.062908,0.112828,0.266376
10.579167,0.046194,0.112601,0.261561
10.583333,0.049360,0.117040,0.250767
10.587500,0.057932,0.128458,0.257075
10.591667,0.029985,0.135577,0.249226
10.595833,0.046562,0.124045,0.248298
10.600000,0.045884,0.137022,0.241390
10.604167,0.053115,0.147850,0.222107
10.608333,0.057903,0.143128,0.223011
10.612500,0.021655,0.153256,0.219784
10.616667,0.046531,0.141079,0.211149
10.620833,0.060979,0.150559,0.214208
10.625000,0.039896,0.120255,0.193723
10.629167,0.041386,0.117652,0.194645
10.633333,0.041433,0.125008,0.194936
10.637500,0.066774,0.129131,0.195064
10.641667,0.043902,0.117871,0.180817
10.645833,0.013389,0.115688,0.150635
10.650000,0.060678,0.103783,0.142139
10.654167,0.064119,0.112038,0.147161
10.658333,0.021863,0.106835,0.134116
10.662500,0.029163,0.116538,0.140749
10.666667,0.033053,0.112324,0.137826
10.670833,0.040475,0.111206,0.110272
10.675000,0.043509,0.109614,0.102193
10.679167,0.023659,0.100006,0.109628
10.683333,0.021264,0.089270,0.112796
10.687500,0.054615,0.097954,0.114626
10.691667,0.025098,0.097980,0.101971
10.695833,0.026575,0.089589,0.098692
10.700000,0.059671,0.120381,0.073136
10.704167,0.033745,0.103053,0.068032
10.708333,0.026142,0.123319,0.068695
10.712500,0.027046,0.127451,0.068744
10.716667,0.026618,0.130238,0.065021
10.720833,0.036524,0.108824,0.056569
10.725000,0.047816,0.121983,0.034696
10.729167,0.040847,0.132403,0.025412
10.733333,0.055613,0.122531,0.020796
10.737500,0.070237,0.123454,0.028122
10.741667,0.060898,0.130375,-0.002010
10.745833,0.026606,0.150519,-0.007127
10.750000,0.037637,0.132229,0.005250
10.754167,0.081003,0.129660,-0.002208
10.758333,0.069723,0.132671,-0.006266
10.762500,0.031340,0.126932,-0.009442
10.766667,0.085371,0.135973,-0.047245
10.770833,0.097945,0.135062,-0.029688
10.775000,0.064240,0.116204,-0.041174
10.779167,0.082175,0.128790,-0.054846
10.783333,0.083357,0.103762,-0.063334
10.787500,0.111817,0.123004,-0.057241
10.791667,0.088302,0.102257,-0.082893
10.795833,0.086948,0.119841,-0.093572
10.800000,0.111594,0.113257,-0.080850
10.804167,0.123925,0.108962,-0.084409
10.808333,0.126676,0.096435,-0.083458
10.812500,0.119792,0.083746,-0.099128
10.816667,0.103361,0.110725,-0.097070
10.820833,0.122182,0.113709,-0.119019
10.825000,0.087234,0.116196,-0.138372
10.829167,0.069647,0.116045,-0.147753
10.833333,0.107765,0.115929,-0.135987
10.837500,0.110125,0.107201,-0.145349
10.841667,0.077262,0.138625,-0.146946
10.845833,0.073292,0.129491,-0.151799
10.850000,0.044904,0.149757,-0.179890
10.854167,0.069581,0.148177,-0.173165
10.858333,0.060688,0.158882,-0.171322
10.862500,0.048365,0.166987,-0.170027
10.866667,0.038203,0.168536,-0.193216
10.870833,0.057103,0.169995,-0.207492
10.875000,0.030246,0.176812,-0.203591
10.879167,0.009935,0.169339,-0.212362
10.883333,0.028650,0.177462,-0.232132
10.887500,0.026307,0.167298,-0.217270
10.891667,0.032975,0.161242,-0.217757
10.895833,0.019317,0.181943,-0.254119
10.900000,0.036441,0.181785,-0.241066
10.904167,0.055084,0.169216,-0.260706
10.908333,0.020053,0.163518,-0.246602
10.912500,0.015877,0.178246,-0.279575
10.916667,0.013709,0.170041,-0.281382
10.920833,0.030524,0.157008,-0.275198
10.925000,0.044695,0.170304,-0.287363
10.929167,0.003825,0.164604,-0.275709
10.933333,0.003011,0.149186,-0.310487
10.937500,0.021201,0.160570,-0.295915
10.941667,-0.053797,0.129830,-0.317901
10.945833,-0.083546,0.129334,-0.314139
10.950000,-0.133129,0.129602,-0.326984
10.954167,-0.095446,0.125475,-0.331801
10.958333,-0.045545,0.132664,-0.324500
10.962500,0.036505,0.146152,-0.323783
10.966667,0.208932,0.123218,-0.354217
10.970833,0.427643,0.143791,-0.339449
10.975000,0.632684,0.142350,-0.345320
10.979167,0.863878,0.144227,-0.382673
10.983333,1.064676,0.142265,-0.371102
10.987500,1.157211,0.157114,-0.380895
10.991667,1.097447,0.173939,-0.401817
10.995833,0.908277,0.199021,-0.379908
11.000000,0.668205,0.217942,-0.386797
11.004167,0.429915,0.207695,-0.407321
11.008333,0.134813,0.248190,-0.413371
11.012500,-0.050206,0.256013,-0.399886
11.016667,-0.132340,0.264284,-0.429146
11.020833,-0.162434,0.296637,-0.443034
11.025000,-0.139661,0.317479,-0.442571
11.029167,-0.107326,0.325194,-0.453467
11.033333,-0.020418,0.340490,-0.457100
11.037500,0.040642,0.351952,-0.441724
11.041667,0.024979,0.362430,-0.473487
11.045833,0.007255,0.390101,-0.475362
11.050000,0.051700,0.368596,-0.456460
11.054167,0.065497,0.389826,-0.463063
11.058333,0.060042,0.371047,-0.468675
11.062500,0.039592,0.364438,-0.487153
11.066667,0.040519,0.352245,-0.486120
11.070833,0.055715,0.335359,-0.500870
11.075000,0.039560,0.321274,-0.508885
11.079167,0.066403,0.300112,-0.526724
11.083333,0.062368,0.278368,-0.511082
11.087500,0.105214,0.254143,-0.513818
11.091667,0.096298,0.225393,-0.539595
11.095833,0.066113,0.216551,-0.533200
11.100000,0.117671,0.179155,-0.531225
11.104167,0.121336,0.170284,-0.565867
11.108333,0.103794,0.157384,-0.568837
11.112500,0.127300,0.156817,-0.570172
11.116667,0.116302,0.131973,-0.557919
11.120833,0.164560,0.137226,-0.561520
11.125000,0.158163,0.125383,-0.570017
11.129167,0.144554,0.119224,-0.594992
11.133333,0.198497,0.132597,-0.594495
11.137500,0.224852,0.132547,-0.580369
11.141667,0.208023,0.121820,-0.589255
11.145833,0.205341,0.118427,-0.610125
11.150000,0.225094,0.129348,-0.611325
11.154167,0.238775,0.129383,-0.611881
11.158333,0.263243,0.139893,-0.636258
11.162500,0.248101,0.127730,-0.643466
11.166667,0.264598,0.149021,-0.639881
11.170833,0.286520,0.129318,-0.630809
11.175000,0.280154,0.122958,-0.634605
11.179167,0.282429,0.142902,-0.633881
11.183333,0.326825,0.143417,-0.665828
11.187500,0.317857,0.122201,-0.659401
11.191667,0.305559,0.131937,-0.681667
11.195833,0.326561,0.118057,-0.684764
11.200000,0.329266,0.128887,-0.661509
11.204167,0.331542,0.130878,-0.698179
11.208333,0.329989,0.120562,-0.674732
11.212500,0.303111,0.104366,-0.704153
11.216667,0.340693,0.114258,-0.681960
11.220833,0.337039,0.105067,-0.706609
11.225000,0.308559,0.104509,-0.708262
11.229167,0.312590,0.086654,-0.696439
11.233333,0.299744,0.104264,-0.706591
11.237500,0.326728,0.101097,-0.737446
11.241667,0.269506,0.089239,-0.737939
11.245833,0.271251,0.077870,-0.723038
11.250000,0.261294,0.071941,-0.732766
11.254167,0.253837,0.087720,-0.732446
11.258333,0.258684,0.084982,-0.742349
11.262500,0.220365,0.100579,-0.763445
11.266667,0.206206,0.098647,-0.772846
11.270833,0.198946,0.089309,-0.762481
11.275000,0.193703,0.104577,-0.780431
11.279167,0.169474,0.095466,-0.783826
11.283333,0.157135,0.103449,-0.777280
11.287500,0.166838,0.090651,-0.793693
11.291667,0.163302,0.096037,-0.782506
11.295833,0.112308,0.101986,-0.800779
11.300000,0.115546,0.124656,-0.796379
11.304167,0.107175,0.120206,-0.787613
11.308333,0.104865,0.113081,-0.820522
11.312500,0.075011,0.120420,-0.803379
11.316667,0.074239,0.127721,-0.822621
11.320833,0.102326,0.129441,-0.801082
11.325000,0.085277,0.132386,-0.831274
11.329167,0.060784,0.127585,-0.817160
11.333333,0.053514,0.109185,-0.842686
11.337500,0.048658,0.115459,-0.847617
11.341667,0.020891,0.097307,-0.846981
11.345833,0.035424,0.095162,-0.857114
11.350000,0.017706,0.106822,-0.861115
11.354167,0.044180,0.097955,-0.843638
11.358333,0.029402,0.090857,-0.857542
11.362500,0.023359,0.079279,-0.867404
11.366667,-0.002465,0.076610,-0.851645
11.370833,0.026054,0.081160,-0.883203
11.375000,0.013468,0.070370,-0.875266
11.379167,-0.012538,0.062116,-0.879858
11.383333,-0.008760,0.073857,-0.893302
11.387500,0.002522,0.077666,-0.880019
11.391667,0.019737,0.068501,-0.899184
11.395833,-0.006908,0.081572,-0.903707
11.400000,0.015971,0.076699,-0.891609
11.404167,0.005716,0.067584,-0.909350
11.408333,-0.013571,0.076288,-0.911178
11.412500,-0.018866,0.088151,-0.909721
11.416667,0.004585,0.075949,-0.905735
11.420833,0.006087,0.081574,-0.929406
11.425000,0.000723,0.083379,-0.936052
11.429167,-0.032041,0.088482,-0.924679
11.433333,-0.016106,0.101416,-0.938890
11.437500,0.023359,0.103022,-0.941327
11.441667,-0.020044,0.086755,-0.940093
11.445833,-0.023549,0.103060,-0.946342
11.450000,0.000940,0.102819,-0.943728
11.454167,0.005657,0.099133,-0.958846
11.458333,0.008752,0.099360,-0.934414
11.462500,0.000062,0.109385,-0.964059
11.466667,-0.024886,0.101667,-0.960808
11.470833,0.016257,0.113715,-0.962097
11.475000,0.003381,0.102522,-0.970835
11.479167,-0.009286,0.111002,-0.947587
11.483333,-0.002137,0.086256,-0.966265
11.487500,-0.015180,0.094997,-0.960798
11.491667,-0.016874,0.084868,-0.975725
11.495833,-0.032650,0.074853,-0.980903
11.500000,0.003559,0.084836,-0.975006
11.504167,0.015827,0.093257,-0.993614
11.508333,-0.017319,0.080849,-0.969459
11.512500,-0.034035,0.077313,-0.999753
11.516667,0.003048,0.075505,-0.981209
11.520833,0.000337,0.057581,-0.983724
11.525000,-0.010676,0.070016,-1.006796
11.529167,-0.026990,0.051803,-1.007060
11.533333,-0.010903,0.075571,-1.001980
11.537500,-0.012470,0.050380,-1.006046
11.541667,-0.029641,0.064724,-0.996043
11.545833,-0.033722,0.049927,-1.022900
11.550000,-0.018756,0.071776,-1.018998
11.554167,-0.015457,0.055156,-1.027935
11.558333,-0.015694,0.055270,-1.004750
11.562500,-0.033591,0.083610,-1.029153
11.566667,-0.017127,0.082241,-1.015296
11.570833,0.012518,0.075256,-1.021532
11.575000,-0.030768,0.086186,-1.015207
11.579167,-0.028414,0.097607,-1.032163
11.583333,-0.020143,0.075232,-1.037559
11.587500,0.006163,0.088451,-1.033963
11.591667,-0.031316,0.089478,-1.039151
11.595833,-0.045970,0.095430,-1.054258
11.600000,-0.026989,0.094114,-1.036678
11.604167,0.011943,0.093760,-1.052906
11.608333,-0.024746,0.099040,-1.030439
11.612500,-0.016031,0.079574,-1.062810
11.616667,0.006473,0.090121,-1.033892
11.620833,-0.015503,0.087829,-1.051941
11.625000,0.002842,0.089851,-1.058650
11.629167,-0.024635,0.076613,-1.070986
11.633333,0.004819,0.090177,-1.042609
11.637500,0.022185,0.073482,-1.056189
11.641667,0.000489,0.062115,-1.058744
11.645833,-0.009933,0.057236,-1.078430
11.650000,0.010761,0.057663,-1.068750
11.654167,0.034090,0.067643,-1.080463
11.658333,0.021762,0.071188,-1.051818
11.662500,0.049677,0.051967,-1.062929
11.666667,0.029281,0.052999,-1.079956
11.670833,0.080976,0.042417,-1.073997
11.675000,0.061971,0.056583,-1.058526
11.679167,0.044933,0.040041,-1.081477
11.683333,0.058776,0.040537,-1.090537
11.687500,0.052148,0.061918,-1.093271
11.691667,0.054979,0.056252,-1.092515
11.695833,0.046351,0.052532,-1.094927
11.700000,0.045925,0.074468,-1.065583
11.704167,0.040831,0.093632,-1.078434
11.708333,0.038855,0.088831,-1.081626
11.712500,0.022874,0.091015,-1.073377
11.716667,0.019630,0.100619,-1.081305
11.720833,0.044081,0.087412,-1.088849
11.725000,0.008366,0.097336,-1.095660
11.729167,-0.014522,0.120250,-1.088430
11.733333,-0.019768,0.115264,-1.105305
11.737500,0.008017,0.109317,-1.082324
11.741667,-0.007841,0.118541,-1.082521
11.745833,-0.043798,0.136196,-1.084350
11.750000,-0.001629,0.135136,-1.102049
11.754167,-0.025124,0.110051,-1.082957
11.758333,-0.033584,0.110096,-1.086351
11.762500,-0.055500,0.136430,-1.104626
11.766667,-0.020395,0.121752,-1.103295
11.770833,0.002998,0.107472,-1.081774
11.775000,-0.038507,0.112201,-1.100474
11.779167,-0.027309,0.113210,-1.093651
11.783333,-0.016162,0.104176,-1.101553
11.787500,-0.011258,0.116898,-1.101168
11.791667,-0.030812,0.088481,-1.087925
11.795833,-0.044671,0.105847,-1.111145
11.800000,-0.014705,0.105667,-1.102972
11.804167,-0.006472,0.077103,-1.107583
11.808333,-0.059417,0.081536,-1.096034
11.812500,-0.072240,0.075853,-1.084708
11.816667,-0.083549,0.085125,-1.104581
11.820833,-0.129332,0.095930,-1.091489
11.825000,-0.150956,0.096864,-1.094576
11.829167,-0.183220,0.080360,-1.085347
11.833333,-0.133132,0.077502,-1.105066
11.837500,-0.026431,0.076114,-1.086881
11.841667,0.105314,0.101891,-1.101154
11.845833,0.288343,0.088913,-1.116026
11.850000,0.542781,0.105951,-1.108963
11.854167,0.789142,0.125665,-1.089057
11.858333,0.986532,0.138377,-1.100216
11.862500,1.049995,0.127062,-1.096370
11.866667,1.045728,0.155823,-1.106611
11.870833,0.913852,0.168072,-1.114371
11.875000,0.672201,0.176944,-1.083466
11.879167,0.398112,0.205875,-1.097992
11.883333,0.145145,0.225742,-1.094167
11.887500,-0.025795,0.240087,-1.110064
11.891667,-0.199793,0.242673,-1.098483
11.895833,-0.228231,0.271482,-1.103805
11.900000,-0.223445,0.270649,-1.094494
11.904167,-0.138476,0.295809,-1.093442
11.908333,-0.091765,0.315883,-1.085358
11.912500,-0.044261,0.308023,-1.074381
11.916667,-0.048991,0.318294,-1.077014
11.920833,-0.000453,0.316386,-1.096372
11.925000,-0.011497,0.300081,-1.076747
11.929167,-0.043606,0.294130,-1.086117
11.933333,-0.019036,0.286484,-1.097870
11.937500,-0.016007,0.281094,-1.101637
11.941667,-0.012427,0.262259,-1.081076
11.945833,-0.019537,0.251512,-1.077260
11.950000,0.013511,0.225359,-1.072910
11.954167,0.033671,0.211229,-1.098212
11.958333,0.007738,0.166713,-1.095445
11.962500,-0.002013,0.144951,-1.067286
11.966667,0.011452,0.127994,-1.093161
11.970833,0.032189,0.110068,-1.081026
11.975000,0.058327,0.111927,-1.067362
11.979167,0.029209,0.104999,-1.081073
11.983333,0.062520,0.103856,-1.059460
11.987500,0.097029,0.098293,-1.069439
11.991667,0.063736,0.090111,-1.082268
11.995833,0.075776,0.085110,-1.075050
12.000000,0.094859,0.083888,-1.048826
12.004167,0.130517,0.087600,-1.056975
12.008333,0.123763,0.083405,-1.053194
12.012500,0.115832,0.077261,-1.061956
12.016667,0.129831,0.087258,-1.069544
12.020833,0.170487,0.071296,-1.051201
12.025000,0.159422,0.069273,-1.056493
12.029167,0.177681,0.079721,-1.041318
12.033333,0.202344,0.078870,-1.056904
12.037500,0.224986,0.069101,-1.060268
12.041667,0.213439,0.074634,-1.032250
12.045833,0.217429,0.064991,-1.062091
12.050000,0.233450,0.080833,-1.048314
12.054167,0.261970,0.077555,-1.044548
12.058333,0.252783,0.053053,-1.055291
12.062500,0.231255,0.055690,-1.031018
12.066667,0.286884,0.041553,-1.045842
12.070833,0.282376,0.059498,-1.041698
12.075000,0.277537,0.047482,-1.043163
12.079167,0.250930,0.041523,-1.038530
12.083333,0.272794,0.043275,-1.011235
12.087500,0.307029,0.035595,-1.013533
12.091667,0.288044,0.041474,-1.005934
12.095833,0.275400,0.018267,-1.007134
12.100000,0.260527,0.037631,-1.017656
12.104167,0.291575,0.034021,-1.022479
12.108333,0.269442,0.027762,-0.999395
12.112500,0.216963,0.011706,-1.000709
12.116667,0.238214,0.021990,-1.008523
12.120833,0.228861,0.031361,-0.990436
12.125000,0.227585,0.024242,-1.002034
12.129167,0.204501,0.035371,-1.001810
12.133333,0.193194,0.027651,-0.981955
12.137500,0.175873,0.042355,-0.984100
12.141667,0.182540,0.043650,-1.000509
12.145833,0.150757,0.031581,-0.968708
12.150000,0.161368,0.034842,-0.971972
12.154167,0.151804,0.062478,-0.977546
12.158333,0.102008,0.054429,-0.971901
12.162500,0.098407,0.049208,-0.961090
12.166667,0.085920,0.065537,-0.963682
12.170833,0.106581,0.044270,-0.968740
12.175000,0.070399,0.056087,-0.969274
12.179167,0.053996,0.056964,-0.964459
12.183333,0.073522,0.052692,-0.945231
12.187500,0.054161,0.051152,-0.940158
12.191667,0.021773,0.057653,-0.946705
12.195833,0.034191,0.053727,-0.944242
12.200000,0.010611,0.035915,-0.956008
12.204167,0.005066,0.042460,-0.935108
12.208333,0.002548,0.047512,-0.943975
12.212500,-0.014772,0.028191,-0.945157
12.216667,0.001215,0.024958,-0.924646
12.220833,-0.001837,0.027799,-0.911613
12.225000,-0.010040,0.010589,-0.928574
12.229167,-0.050323,0.029142,-0.918657
12.233333,-0.022583,0.006131,-0.898134
12.237500,-0.029695,0.020382,-0.908223
12.241667,-0.046777,-0.005910,-0.924168
12.245833,-0.055609,0.004663,-0.900334
12.250000,-0.039583,0.020175,-0.914347
12.254167,-0.040322,0.003376,-0.903444
12.258333,-0.053087,0.009280,-0.895324
12.262500,-0.046466,-0.001716,-0.901118
12.266667,-0.058599,0.004107,-0.889238
12.270833,-0.042307,0.013113,-0.895664
12.275000,-0.029347,0.023990,-0.865734
12.279167,-0.073968,0.027491,-0.873208
12.283333,-0.027225,0.007877,-0.852823
12.287500,-0.028102,0.017955,-0.865580
12.291667,-0.028537,0.024510,-0.860715
12.295833,-0.076539,0.021700,-0.853891
12.300000,-0.042731,0.027803,-0.860376
12.304167,-0.021561,0.037150,-0.853066
12.308333,-0.038195,0.048102,-0.830769
12.312500,-0.044913,0.037191,-0.827234
12.316667,-0.055956,0.028916,-0.837140
12.320833,-0.018601,0.029702,-0.830879
12.325000,-0.048176,0.027300,-0.832091
12.329167,-0.066831,0.046273,-0.820833
12.333333,-0.050577,0.038350,-0.822411
12.337500,-0.040283,0.026022,-0.828151
12.341667,-0.036217,0.014017,-0.811160
12.345833,-0.067805,0.017861,-0.818540
12.350000,-0.055984,0.016725,-0.812560
12.354167,-0.027459,0.017454,-0.800231
12.358333,-0.041292,0.026775,-0.782865
12.362500,-0.045789,0.003051,-0.788127
12.366667,-0.062071,-0.001219,-0.786817
12.370833,-0.028954,0.006194,-0.763174
12.375000,-0.068523,-0.004322,-0.777735
12.379167,-0.063807,-0.001658,-0.757966
12.383333,-0.039996,-0.000948,-0.762563
12.387500,-0.036943,0.006614,-0.750656
12.391667,-0.035158,-0.009901,-0.758815
12.395833,-0.070550,-0.005751,-0.739587
12.400000,-0.038332,-0.016593,-0.729152
12.404167,-0.020807,-0.016830,-0.727642
12.408333,-0.050128,-0.014225,-0.736841
12.412500,-0.078323,-0.006693,-0.747496
12.416667,-0.056425,-0.003574,-0.713794
12.420833,-0.043299,0.007907,-0.715043
12.425000,-0.055954,-0.003346,-0.708287
12.429167,-0.077452,0.017471,-0.724378
12.433333,-0.042178,0.020193,-0.698541
12.437500,-0.042681,0.028365,-0.689131
12.441667,-0.049726,0.009692,-0.698750
12.445833,-0.071709,0.008523,-0.682189
12.450000,-0.049351,0.028360,-0.671981
12.454167,-0.023964,0.032520,-0.690374
12.458333,-0.030277,0.020740,-0.669433
12.462500,-0.075593,0.030957,-0.666659
12.466667,-0.056725,0.037490,-0.659881
12.470833,-0.030144,0.014275,-0.676519
12.475000,-0.033677,0.028151,-0.658137
12.479167,-0.043992,0.007722,-0.662371
12.483333,-0.059875,0.016782,-0.647679
12.487500,-0.024820,0.021250,-0.621747
12.491667,-0.042187,0.022976,-0.625766
12.495833,-0.059577,0.007650,-0.644935
12.500000,-0.049252,0.012515,-0.626671
12.504167,-0.039463,-0.014676,-0.615887
12.508333,-0.041061,-0.012282,-0.612931
12.512500,-0.036087,-0.017162,-0.595933
12.516667,-0.028228,-0.024287,-0.603226
12.520833,-0.011947,-0.029202,-0.609725
12.525000,-0.033093,-0.006402,-0.580886
12.529167,-0.038666,-0.010553,-0.581049
12.533333,-0.021959,-0.030363,-0.585389
12.537500,0.006402,-0.028028,-0.560295
12.541667,-0.009498,-0.013489,-0.566189
12.545833,-0.011461,-0.016898,-0.566275
12.550000,-0.020414,-0.012163,-0.568460
12.554167,0.012513,-0.024041,-0.566278
12.558333,0.012347,-0.002199,-0.541945
12.562500,-0.009487,-0.026488,-0.535805
12.566667,0.009786,-0.008256,-0.550861
12.570833,0.026030,-0.007379,-0.512221
12.575000,0.031390,0.001018,-0.521427
12.579167,0.031342,-0.000180,-0.512112
12.583333,0.025168,0.026277,-0.495980
12.587500,0.026085,0.027630,-0.517969
12.591667,0.016010,0.017896,-0.500392
12.595833,0.023159,0.038537,-0.491124
12.600000,0.033472,0.029214,-0.477389
12.604167,0.009331,0.027401,-0.494822
12.608333,0.018337,0.031009,-0.459091
12.612500,-0.026749,0.042674,-0.483499
12.616667,-0.000399,0.029725,-0.477583
12.620833,-0.005554,0.038183,-0.460536
12.625000,-0.033508,0.046019,-0.452148
12.629167,-0.036453,0.045777,-0.454265
12.633333,-0.050867,0.041813,-0.449121
12.637500,-0.006740,0.031862,-0.432693
12.641667,-0.035194,0.032187,-0.435572
12.645833,-0.051487,0.017821,-0.421521
12.650000,-0.039998,0.009695,-0.405692
12.654167,-0.032905,0.009951,-0.424761
12.658333,-0.056811,0.031773,-0.410288
12.662500,-0.078472,0.026852,-0.395818
12.666667,-0.062459,0.019321,-0.383020
12.670833,-0.044714,0.021211,-0.376381
12.675000,-0.043819,0.014008,-0.379209
12.679167,-0.055724,0.006863,-0.390132
12.683333,-0.062187,0.001793,-0.365013
12.687500,-0.045781,0.022358,-0.355159
12.691667,-0.054646,0.020047,-0.369639
12.695833,-0.065840,0.020388,-0.343466
12.700000,-0.065535,0.006328,-0.354894
12.704167,-0.039624,0.022552,-0.327667
12.708333,-0.061733,0.032591,-0.317519
12.712500,-0.104550,0.040065,-0.333401
12.716667,-0.136360,0.032733,-0.318241
12.720833,-0.169814,0.041177,-0.328243
12.725000,-0.177407,0.035269,-0.315888
12.729167,-0.153502,0.051325,-0.285558
12.733333,-0.041118,0.045340,-0.280264
12.737500,0.111133,0.051028,-0.300501
12.741667,0.265230,0.070363,-0.265166
12.745833,0.511759,0.060256,-0.284101
12.750000,0.771249,0.084343,-0.256613
12.754167,0.977792,0.105843,-0.246594
12.758333,1.048683,0.094969,-0.240141
12.762500,1.047215,0.130118,-0.260820
12.766667,0.898646,0.134865,-0.251839
12.770833,0.691248,0.137056,-0.237959
12.775000,0.416828,0.156908,-0.238588
12.779167,0.137751,0.180826,-0.213914
12.783333,-0.078153,0.186833,-0.218317
12.787500,-0.174383,0.197833,-0.199796
12.791667,-0.246161,0.213547,-0.213551
12.795833,-0.228203,0.200282,-0.209096
12.800000,-0.144651,0.205522,-0.182630
12.804167,-0.076474,0.212171,-0.185375
12.808333,-0.076281,0.219613,-0.177144
12.812500,-0.070528,0.211736,-0.184434
12.816667,-0.034018,0.210531,-0.159348
12.820833,-0.018891,0.187443,-0.161346
12.825000,-0.026706,0.181533,-0.160103
12.829167,-0.018005,0.168153,-0.152220
12.833333,-0.012797,0.148971,-0.133573
12.837500,-0.010131,0.128591,-0.133431
12.841667,-0.001628,0.120913,-0.138655
12.845833,-0.002608,0.096461,-0.111077
12.850000,0.001494,0.069306,-0.126513
12.854167,0.033056,0.057040,-0.097952
12.858333,0.001562,0.054247,-0.094353
12.862500,0.011433,0.052145,-0.084479
12.866667,0.011910,0.036607,-0.108174
12.870833,0.031598,0.021245,-0.079544
12.875000,0.041777,0.028968,-0.093362
12.879167,0.055468,0.017491,-0.083236
12.883333,0.052197,0.015687,-0.060198
12.887500,0.100549,0.003834,-0.065947
12.891667,0.076033,-0.003624,-0.070420
12.895833,0.098284,0.005324,-0.051422
12.900000,0.106478,0.002040,-0.030515
12.904167,0.120211,-0.012638,-0.021440
12.908333,0.130544,-0.007154,-0.041349
12.912500,0.120192,-0.013003,-0.004965
12.916667,0.144447,-0.020703,-0.027982
12.920833,0.171765,-0.015630,-0.007518
12.925000,0.180365,-0.030736,0.007269
12.929167,0.180455,-0.017256,0.014961
12.933333,0.191307,-0.015639,0.014092
12.937500,0.248915,-0.027308,0.005079
12.941667,0.246032,-0.034822,0.005611
12.945833,0.211659,-0.049737,0.028890
12.950000,0.252146,-0.054823,0.036732
12.954167,0.274288,-0.049308,0.050933
12.958333,0.247507,-0.040400,0.062436
12.962500,0.252369,-0.048102,0.064135
12.966667,0.273340,-0.043558,0.047553
12.970833,0.294269,-0.063063,0.058092
12.975000,0.289913,-0.057983,0.057764
12.979167,0.280358,-0.050039,0.075374
12.983333,0.298012,-0.041871,0.070614
12.987500,0.303013,-0.046269,0.091003
12.991667,0.268577,-0.037943,0.094106
12.995833,0.252682,-0.023440,0.104299
13.000000,0.253758,-0.022239,0.110538
13.004167,0.256646,-0.027506,0.107207
13.008333,0.255614,-0.018491,0.116330
13.012500,0.247458,-0.019598,0.122374
13.016667,0.218584,-0.021272,0.143430
13.020833,0.219606,-0.028467,0.137612
13.025000,0.202446,-0.010274,0.150080
13.029167,0.196371,-0.026838,0.157114
13.033333,0.204801,-0.017195,0.144156
13.037500,0.207352,-0.033598,0.182293
13.041667,0.163498,-0.026975,0.158292
13.045833,0.146772,-0.014778,0.192154
13.050000,0.158863,-0.038073,0.176989
13.054167,0.129791,-0.027326,0.188475
13.058333,0.133491,-0.017848,0.210543
13.062500,0.100117,-0.040386,0.214490
13.066667,0.081039,-0.050160,0.202642
13.070833,0.092492,-0.038852,0.213581
13.075000,0.089577,-0.051601,0.210891
13.079167,0.050466,-0.046874,0.212767
13.083333,0.044509,-0.059608,0.234319
13.087500,0.064497,-0.069532,0.240382
13.091667,0.028743,-0.056282,0.250755
13.095833,0.001163,-0.070913,0.265906
13.100000,0.011775,-0.064839,0.253920
13.104167,0.040579,-0.060945,0.257667
13.108333,0.014284,-0.075032,0.269717
13.112500,-0.007784,-0.081793,0.263278
13.116667,0.021193,-0.066439,0.273650
13.120833,-0.000819,-0.066717,0.294627
13.125000,-0.001271,-0.052742,0.291381
13.129167,-0.034243,-0.047710,0.296740
13.133333,-0.016349,-0.073688,0.318239
13.137500,-0.009689,-0.067097,0.303861
13.141667,-0.023602,-0.063766,0.307907
13.145833,-0.014616,-0.046501,0.327408
13.150000,-0.011031,-0.046015,0.325650
13.154167,-0.009946,-0.044896,0.338510
13.158333,-0.034716,-0.039775,0.329594
13.162500,-0.049386,-0.036048,0.363537
13.166667,-0.007321,-0.043225,0.350243
13.170833,0.002616,-0.038542,0.366331
13.175000,-0.024655,-0.024335,0.374735
13.179167,-0.035289,-0.040061,0.353478
13.183333,-0.042031,-0.033917,0.385568
13.187500,-0.022023,-0.037033,0.368137
13.191667,-0.035212,-0.047181,0.394414
13.195833,-0.026270,-0.041390,0.408040
13.200000,-0.007830,-0.034532,0.386460
13.204167,-0.029129,-0.039615,0.396660
13.208333,-0.038278,-0.065270,0.413555
13.212500,-0.043416,-0.059656,0.417022
13.216667,-0.043563,-0.073791,0.431291
13.220833,-0.022126,-0.064188,0.436230
13.225000,-0.024905,-0.078449,0.436051
13.229167,-0.042673,-0.077560,0.435116
13.233333,-0.036821,-0.073398,0.459448
13.237500,-0.020433,-0.064866,0.464151
13.241667,-0.031835,-0.089173,0.470068
13.245833,-0.042544,-0.089046,0.459883
13.250000,-0.043273,-0.088295,0.463939
13.254167,-0.011425,-0.079686,0.468445
13.258333,-0.019059,-0.079402,0.476985
13.262500,-0.053579,-0.066313,0.477896
13.266667,-0.004775,-0.090604,0.495606
13.270833,-0.004138,-0.076581,0.499405
13.275000,-0.042674,-0.088153,0.504801
13.279167,-0.047750,-0.070672,0.491197
13.283333,-0.011608,-0.076256,0.513649
13.287500,-0.021635,-0.061368,0.510895
13.291667,-0.028584,-0.075587,0.504960
13.295833,-0.016732,-0.057405,0.531275
13.300000,-0.013678,-0.055220,0.544141
13.304167,-0.006121,-0.054471,0.532164
13.308333,-0.035932,-0.052641,0.548537
13.312500,-0.025535,-0.048732,0.550788
13.316667,-0.040368,-0.061228,0.546961
13.320833,-0.013331,-0.037441,0.566460
13.325000,-0.033514,-0.036410,0.548572
13.329167,-0.022784,-0.063217,0.572357
13.333333,-0.016481,-0.050539,0.568458
13.337500,0.010209,-0.068148,0.587804
13.341667,-0.016702,-0.063390,0.585519
13.345833,-0.016993,-0.072323,0.580649
13.350000,-0.030153,-0.058702,0.583449
13.354167,-0.000292,-0.081454,0.579480
13.358333,-0.015570,-0.070422,0.608231
13.362500,-0.019472,-0.062906,0.605193
13.366667,-0.022201,-0.094425,0.601291
13.370833,0.010062,-0.098450,0.625770
13.375000,-0.007171,-0.094133,0.612345
13.379167,-0.029528,-0.097822,0.627212
