time,flexor_channel,force_proxy
0.000000,0.004410,0.000001
0.002500,0.030220,0.000041
0.005000,0.025011,0.000081
0.007500,-0.004799,0.000121
0.010000,0.001431,0.000162
0.012500,-0.003236,0.000202
0.015000,-0.015229,0.000242
0.017500,0.006678,0.000282
0.020000,-0.000379,0.000322
0.022500,-0.016055,0.000362
0.025000,-0.021379,0.000402
0.027500,0.014318,0.000442
0.030000,0.026085,0.000482
0.032500,0.014033,0.000522
0.035000,0.010774,0.000562
0.037500,-0.009962,0.000602
0.040000,0.001886,0.000642
0.042500,-0.000063,0.000682
0.045000,0.004480,0.000723
0.047500,-0.015649,0.000763
0.050000,-0.010695,0.000803
0.052500,-0.001557,0.000843
0.055000,0.022828,0.000883
0.057500,0.032356,0.000923
0.060000,0.024663,0.000963
0.062500,0.007362,0.001003
0.065000,0.001938,0.001043
0.067500,-0.019692,0.001083
0.070000,-0.015897,0.001124
0.072500,-0.012111,0.001164
0.075000,-0.006593,0.001204
0.077500,-0.024440,0.001244
0.080000,-0.007933,0.001284
0.082500,0.025923,0.001324
0.085000,0.026808,0.001364
0.087500,0.022134,0.001404
0.090000,0.009299,0.001445
0.092500,0.002953,0.001485
0.095000,-0.001258,0.001525
0.097500,-0.011097,0.001565
0.100000,-0.006466,0.001605
0.102500,-0.016337,0.001645
0.105000,-0.026274,0.001685
0.107500,0.014424,0.001726
0.110000,0.012175,0.001766
0.112500,0.017558,0.001806
0.115000,-0.005031,0.001846
0.117500,-0.003131,0.001886
0.120000,-0.000197,0.001926
0.122500,-0.000676,0.001967
0.125000,-0.000820,0.002007
0.127500,0.004738,0.002047
0.130000,-0.012664,0.002087
0.132500,-0.012869,0.002127
0.135000,0.004217,0.002168
0.137500,0.037293,0.002208
0.140000,0.021843,0.002248
0.142500,0.015302,0.002288
0.145000,0.002442,0.002329
0.147500,-0.020210,0.002369
0.150000,-0.004939,0.002409
0.152500,-0.004501,0.002449
0.155000,0.005800,0.002490
0.157500,-0.005425,0.002530
0.160000,0.007301,0.002570
0.162500,0.018183,0.002611
0.165000,0.020854,0.002651
0.167500,0.021237,0.002692
0.170000,-0.006914,0.002732
0.172500,-0.002986,0.002772
0.175000,-0.020510,0.002813
0.177500,-0.002552,0.002853
0.180000,-0.009426,0.002894
0.182500,0.006669,0.002934
0.185000,-0.019654,0.002975
0.187500,0.012076,0.003015
0.190000,0.023244,0.003056
0.192500,0.032160,0.003096
0.195000,0.007291,0.003137
0.197500,-0.004401,0.003178
0.200000,-0.015249,0.003218
0.202500,-0.023110,0.003259
0.205000,-0.016486,0.003300
0.207500,0.005476,0.003341
0.210000,-0.005704,0.003381
0.212500,-0.007099,0.003422
0.215000,0.009838,0.003463
0.217500,0.025122,0.003504
0.220000,0.008695,0.003545
0.222500,0.004716,0.003586
0.225000,0.001950,0.003627
0.227500,-0.019945,0.003668
0.230000,-0.019142,0.003709
0.232500,0.005729,0.003750
0.235000,0.006465,0.003792
0.237500,-0.014758,0.003833
0.240000,-0.007435,0.003874
0.242500,0.006683,0.003916
0.245000,0.032730,0.003957
0.247500,0.008739,0.003999
0.250000,-0.012045,0.004040
0.252500,-0.016476,0.004082
0.255000,-0.019336,0.004124
0.257500,-0.016570,0.004165
0.260000,0.000621,0.004207
0.262500,-0.005116,0.004249
0.265000,-0.015284,0.004291
0.267500,0.007180,0.004333
0.270000,0.017681,0.004376
0.272500,0.020837,0.004418
0.275000,0.006516,0.004460
0.277500,-0.006642,0.004503
0.280000,-0.005503,0.004545
0.282500,-0.020464,0.004588
0.285000,-0.010547,0.004631
0.287500,0.003613,0.004674
0.290000,0.015863,0.004717
0.292500,0.001867,0.004760
0.295000,-0.005898,0.004803
0.297500,0.023246,0.004846
0.300000,0.007255,0.004890
0.302500,0.012155,0.004934
0.305000,-0.007926,0.004977
0.307500,-0.015658,0.005021
0.310000,-0.024807,0.005065
0.312500,-0.009359,0.005110
0.315000,0.002848,0.005154
0.317500,0.006534,0.005199
0.320000,-0.011924,0.005243
0.322500,-0.001805,0.005288
0.325000,0.021679,0.005333
0.327500,0.013082,0.005379
0.330000,-0.007210,0.005424
0.332500,-0.002135,0.005470
0.335000,-0.017172,0.005516
0.337500,-0.019722,0.005562
0.340000,-0.008957,0.005608
0.342500,0.000822,0.005654
0.345000,-0.002615,0.005701
0.347500,-0.004082,0.005748
0.350000,0.015034,0.005795
0.352500,0.006632,0.005843
0.355000,0.015808,0.005891
0.357500,0.008944,0.005939
0.360000,-0.018318,0.005987
0.362500,-0.029588,0.006036
0.365000,-0.013582,0.006085
0.367500,0.022279,0.006134
0.370000,0.004894,0.006184
0.372500,0.004895,0.006233
0.375000,0.001847,0.006284
0.377500,0.015456,0.006334
0.380000,0.016032,0.006385
0.382500,0.008210,0.006436
0.385000,-0.011368,0.006488
0.387500,-0.030541,0.006540
0.390000,-0.024640,0.006593
0.392500,-0.015128,0.006646
0.395000,0.014855,0.006699
0.397500,0.021499,0.006753
0.400000,0.007403,0.006807
0.402500,0.019126,0.006862
0.405000,0.000863,0.006917
0.407500,0.011563,0.006972
0.410000,-0.006770,0.007028
0.412500,-0.019968,0.007085
0.415000,-0.034831,0.007142
0.417500,-0.029241,0.007200
0.420000,0.010050,0.007258
0.422500,0.010189,0.007317
0.425000,0.015241,0.007377
0.427500,0.002770,0.007437
0.430000,0.016015,0.007498
0.432500,0.007993,0.007559
0.435000,-0.003167,0.007621
0.437500,-0.007368,0.007684
0.440000,-0.020482,0.007747
0.442500,-0.029096,0.007812
0.445000,-0.019875,0.007876
0.447500,0.011246,0.007942
0.450000,0.017696,0.008009
0.452500,-0.000524,0.008076
0.455000,-0.005451,0.008144
0.457500,0.006110,0.008213
0.460000,0.007889,0.008283
0.462500,-0.007434,0.008353
0.465000,-0.004270,0.008425
0.467500,-0.009990,0.008498
0.470000,-0.024559,0.008571
0.472500,-0.017709,0.008646
0.475000,0.023336,0.008721
0.477500,0.013514,0.008798
0.480000,0.014154,0.008875
0.482500,-0.002245,0.008954
0.485000,-0.001119,0.009034
0.487500,-0.006048,0.009115
0.490000,-0.005415,0.009197
0.492500,-0.003730,0.009281
0.495000,-0.026989,0.009365
0.497500,-0.012628,0.009451
0.500000,-0.003633,0.009538
0.502500,0.009262,0.009627
0.505000,0.030720,0.009717
0.507500,0.001925,0.009808
0.510000,-0.002453,0.009901
0.512500,-0.004961,0.009995
0.515000,0.000380,0.010091
0.517500,-0.001878,0.010188
0.520000,-0.005098,0.010287
0.522500,-0.027542,0.010388
0.525000,-0.007336,0.010490
0.527500,0.010467,0.010594
0.530000,0.016202,0.010699
0.532500,0.014855,0.010807
0.535000,-0.002421,0.010916
0.537500,-0.005040,0.011027
0.540000,0.008887,0.011140
0.542500,-0.010300,0.011255
0.545000,-0.013694,0.011372
0.547500,-0.020716,0.011490
0.550000,-0.032829,0.011612
0.552500,-0.009410,0.011735
0.555000,0.016900,0.011860
0.557500,0.029488,0.011988
0.560000,0.024354,0.012118
0.562500,0.014028,0.012250
0.565000,-0.004910,0.012384
0.567500,-0.004398,0.012521
0.570000,-0.000141,0.012661
0.572500,0.000423,0.012803
0.575000,-0.005232,0.012948
0.577500,-0.018100,0.013095
0.580000,-0.014052,0.013245
0.582500,0.008989,0.013398
0.585000,0.027778,0.013554
0.587500,0.016502,0.013713
0.590000,-0.011528,0.013874
0.592500,-0.013498,0.014039
0.595000,-0.021369,0.014207
0.597500,0.004991,0.014377
0.600000,-0.001939,0.014552
0.602500,-0.002036,0.014729
0.605000,-0.004577,0.014910
0.607500,0.000546,0.015094
0.610000,0.012920,0.015282
0.612500,0.021457,0.015473
0.615000,-0.003942,0.015668
0.617500,-0.004748,0.015867
0.620000,-0.012930,0.016069
0.622500,-0.009133,0.016276
0.625000,-0.016642,0.016486
0.627500,-0.015074,0.016700
0.630000,-0.003423,0.016919
0.632500,-0.004228,0.017141
0.635000,0.005069,0.017368
0.637500,0.017206,0.017600
0.640000,0.025487,0.017835
0.642500,0.004052,0.018076
0.645000,0.006040,0.018321
0.647500,-0.021430,0.018570
0.650000,-0.013259,0.018825
0.652500,-0.007674,0.019084
0.655000,-0.007844,0.019349
0.657500,-0.022015,0.019618
0.660000,0.001660,0.019893
0.662500,0.014321,0.020172
0.665000,0.029344,0.020458
0.667500,0.023924,0.020748
0.670000,-0.011520,0.021045
0.672500,0.002118,0.021347
0.675000,-0.029146,0.021655
0.677500,-0.017019,0.021968
0.680000,0.005033,0.022288
0.682500,-0.008525,0.022614
0.685000,-0.014995,0.022946
0.687500,0.009127,0.023284
0.690000,0.032626,0.023629
0.692500,0.010270,0.023980
0.695000,0.017738,0.024338
0.697500,-0.015923,0.024703
0.700000,-0.009937,0.025074
0.702500,-0.019358,0.025453
0.705000,0.000381,0.025838
0.707500,-0.007499,0.026231
0.710000,-0.006783,0.026632
0.712500,-0.001617,0.027040
0.715000,0.018751,0.027455
0.717500,0.024098,0.027878
0.720000,0.013691,0.028309
0.722500,-0.008607,0.028749
0.725000,-0.015749,0.029196
0.727500,-0.007918,0.029651
0.730000,-0.020658,0.030115
0.732500,-0.000534,0.030588
0.735000,0.010150,0.031069
0.737500,-0.007922,0.031559
0.740000,-0.007322,0.032058
0.742500,0.009282,0.032566
0.745000,0.015556,0.033083
0.747500,0.013564,0.033609
0.750000,-0.009568,0.034145
0.752500,-0.002642,0.034691
0.755000,-0.030791,0.035246
0.757500,-0.018552,0.035812
0.760000,0.002913,0.036387
0.762500,0.016294,0.036973
0.765000,-0.009745,0.037569
0.767500,-0.010796,0.038176
0.770000,0.011052,0.038793
0.772500,0.009436,0.039422
0.775000,0.015482,0.040061
0.777500,-0.012189,0.040711
0.780000,-0.025963,0.041373
0.782500,-0.014827,0.042046
0.785000,-0.009523,0.042731
0.787500,0.004296,0.043428
0.790000,0.008807,0.044136
0.792500,0.000659,0.044857
0.795000,0.000516,0.045590
0.797500,0.016601,0.046335
0.800000,0.014221,0.047093
0.802500,0.010402,0.047864
0.805000,-0.001651,0.048648
0.807500,-0.022380,0.049445
0.810000,-0.022369,0.050255
0.812500,0.004325,0.051078
0.815000,0.011258,0.051915
0.817500,0.001417,0.052766
0.820000,0.002174,0.053631
0.822500,0.006134,0.054510
0.825000,0.006157,0.055403
0.827500,0.014792,0.056311
0.830000,-0.006363,0.057233
0.832500,-0.022750,0.058170
0.835000,-0.017597,0.059122
0.837500,-0.013676,0.060090
0.840000,0.013822,0.061072
0.842500,0.008037,0.062070
0.845000,-0.005860,0.063084
0.847500,-0.003280,0.064113
0.850000,0.002905,0.065159
0.852500,0.023348,0.066220
0.855000,-0.003510,0.067298
0.857500,-0.009753,0.068393
0.860000,-0.005757,0.069504
0.862500,-0.018796,0.070632
0.865000,-0.023183,0.071777
0.867500,0.011043,0.072940
0.870000,0.015791,0.074120
0.872500,0.002632,0.075317
0.875000,0.015181,0.076532
0.877500,0.019696,0.077765
0.880000,0.006946,0.079016
0.882500,0.011901,0.080285
0.885000,-0.011691,0.081573
0.887500,-0.014633,0.082879
0.890000,-0.022057,0.084204
0.892500,0.000718,0.085548
0.895000,0.022677,0.086911
0.897500,0.005966,0.088294
0.900000,0.010351,0.089695
0.902500,0.000378,0.091117
0.905000,0.011064,0.092558
0.907500,-0.002078,0.094018
0.910000,0.003144,0.095499
0.912500,-0.020746,0.097001
0.915000,-0.024364,0.098522
0.917500,-0.020873,0.100064
0.920000,0.006999,0.101627
0.922500,0.013258,0.103211
0.925000,0.021035,0.104815
0.927500,0.002061,0.106441
0.930000,0.004232,0.108088
0.932500,0.012515,0.109756
0.935000,-0.003756,0.111446
0.937500,-0.012598,0.113158
0.940000,-0.022348,0.114891
0.942500,-0.036063,0.116647
0.945000,-0.007859,0.118425
0.947500,0.000617,0.120224
0.950000,0.016979,0.122047
0.952500,-0.002514,0.123891
0.955000,0.013642,0.125759
0.957500,0.001971,0.127649
0.960000,-0.001439,0.129562
0.962500,0.005436,0.131498
0.965000,-0.007530,0.133457
0.967500,-0.021752,0.135439
0.970000,-0.023566,0.137445
0.972500,-0.000789,0.139474
0.975000,0.003992,0.141526
0.977500,0.010128,0.143602
0.980000,0.015062,0.145702
0.982500,0.008503,0.147825
0.985000,0.007266,0.149973
0.987500,-0.007896,0.152144
0.990000,-0.004704,0.154340
0.992500,0.000989,0.156559
0.995000,-0.028688,0.158803
0.997500,-0.021450,0.161071
1.000000,0.010841,0.163363
1.002500,0.024462,0.165680
1.005000,0.014238,0.168021
1.007500,-0.002675,0.170387
1.010000,0.015822,0.172777
1.012500,0.000758,0.175192
1.015000,-0.003893,0.177631
1.017500,0.007768,0.180095
1.020000,-0.011231,0.182584
1.022500,-0.017532,0.185097
1.025000,-0.004536,0.187635
1.027500,0.001344,0.190198
1.030000,0.020097,0.192785
1.032500,0.025812,0.195397
1.035000,0.015820,0.198034
1.037500,-0.003252,0.200696
1.040000,-0.013606,0.203382
1.042500,0.000735,0.206094
1.045000,-0.006912,0.208829
1.047500,0.001640,0.211590
1.050000,-0.016509,0.214375
1.052500,-0.007143,0.217184
1.055000,0.013811,0.220018
1.057500,0.013801,0.222877
1.060000,0.004078,0.225760
1.062500,0.001843,0.228667
1.065000,-0.002816,0.231599
1.067500,-0.015367,0.234554
1.070000,-0.015184,0.237534
1.072500,-0.009360,0.240538
1.075000,-0.005977,0.243566
1.077500,-0.021486,0.246618
1.080000,-0.013713,0.249693
1.082500,0.014757,0.252793
1.085000,0.019296,0.255915
1.087500,0.018722,0.259061
1.090000,0.001283,0.262230
1.092500,-0.010104,0.265423
1.095000,-0.022333,0.268638
1.097500,-0.006707,0.271876
1.100000,0.003129,0.275137
1.102500,-0.012308,0.278420
1.105000,-0.018912,0.281726
1.107500,0.015162,0.285053
1.110000,0.012077,0.288403
1.112500,0.020227,0.291774
1.115000,0.009262,0.295167
1.117500,0.008139,0.298581
1.120000,-0.016117,0.302017
1.122500,-0.019487,0.305473
1.125000,-0.011216,0.308950
1.127500,-0.001020,0.312447
1.130000,-0.011581,0.315965
1.132500,-0.015257,0.319503
1.135000,0.020542,0.323060
1.137500,0.028563,0.326637
1.140000,0.028261,0.330232
1.142500,-0.007364,0.333847
1.145000,0.003305,0.337481
1.147500,-0.016577,0.341132
1.150000,-0.003805,0.344802
1.152500,-0.013945,0.348489
1.155000,0.000613,0.352194
1.157500,-0.001688,0.355916
1.160000,-0.010899,0.359654
1.162500,0.008066,0.363409
1.165000,0.017204,0.367180
1.167500,0.020766,0.370967
1.170000,-0.000960,0.374769
1.172500,-0.009488,0.378586
1.175000,-0.018726,0.382418
1.177500,-0.000598,0.386264
1.180000,-0.007930,0.390124
1.182500,0.003138,0.393997
1.185000,-0.013525,0.397883
1.187500,0.001434,0.401782
1.190000,0.033408,0.405693
1.192500,0.015957,0.409616
1.195000,-0.003088,0.413551
1.197500,-0.008646,0.417496
1.200000,-0.173503,0.421452
1.202500,-0.258496,0.425418
1.205000,-0.180017,0.429394
1.207500,0.150537,0.433379
1.210000,-0.142315,0.437373
1.212500,-0.134842,0.441375
1.215000,0.260086,0.445384
1.217500,0.251047,0.449401
1.220000,0.272932,0.453425
1.222500,0.056427,0.457455
1.225000,-0.087259,0.461491
1.227500,-0.284585,0.465532
1.230000,-0.375920,0.469578
1.232500,-0.014532,0.473628
1.235000,-0.069238,0.477682
1.237500,-0.045026,0.481739
1.240000,-0.099956,0.485799
1.242500,0.238985,0.489861
1.245000,0.290740,0.493924
1.247500,0.057540,0.497989
1.250000,-0.048487,0.502054
1.252500,-0.294717,0.506119
1.255000,-0.315964,0.510183
1.257500,-0.056755,0.514247
1.260000,0.184516,0.518308
1.262500,0.039515,0.522367
1.265000,0.065814,0.526423
1.267500,0.066336,0.530476
1.270000,0.324536,0.534524
1.272500,0.118797,0.538568
1.275000,0.128699,0.542607
1.277500,0.109169,0.546639
1.280000,-0.139718,0.550665
1.282500,-0.445906,0.554684
1.285000,-0.046903,0.558696
1.287500,-0.054696,0.562699
1.290000,0.087424,0.566693
1.292500,0.087428,0.570677
1.295000,0.095857,0.574651
1.297500,0.335947,0.578615
1.300000,0.264959,0.582567
1.302500,0.163707,0.586507
1.305000,-0.154549,0.590434
1.307500,-0.134768,0.594348
1.310000,-0.289424,0.598248
1.312500,-0.171008,0.602133
1.315000,-0.019266,0.606003
1.317500,-0.046307,0.609858
1.320000,0.074679,0.613695
1.322500,0.129131,0.617516
1.325000,0.371520,0.621319
1.327500,0.153905,0.625103
1.330000,0.068452,0.628869
1.332500,-0.037518,0.632614
1.335000,-0.198506,0.636340
1.337500,-0.235167,0.640044
1.340000,-0.039618,0.643727
1.342500,0.217907,0.647387
1.345000,-0.010053,0.651025
1.347500,0.081172,0.654639
1.350000,0.038684,0.658229
1.352500,0.239304,0.661794
1.355000,0.002511,0.665334
1.357500,-0.188449,0.668848
1.360000,-0.160380,0.672335
1.362500,-0.339156,0.675795
1.365000,-0.063465,0.679226
1.367500,0.078381,0.682630
1.370000,0.282679,0.686004
1.372500,0.093152,0.689348
1.375000,0.052933,0.692662
1.377500,0.223298,0.695945
1.380000,0.247003,0.699197
1.382500,-0.026074,0.702416
1.385000,0.073241,0.705602
1.387500,-0.350033,0.708755
1.390000,-0.463077,0.711875
1.392500,0.014004,0.714959
1.395000,0.079085,0.718008
1.397500,0.276991,0.721022
1.400000,-0.077444,0.724000
1.402500,-0.037014,0.726940
1.405000,0.234284,0.729843
1.407500,-0.014139,0.732708
1.410000,0.011654,0.735535
1.412500,0.031480,0.738323
1.415000,-0.276510,0.741071
1.417500,-0.409344,0.743779
1.420000,0.079280,0.746446
1.422500,0.263818,0.749072
1.425000,0.306387,0.751657
1.427500,-0.003643,0.754199
1.430000,0.109544,0.756699
1.432500,0.143155,0.759156
1.435000,-0.011441,0.761568
1.437500,0.112233,0.763937
1.440000,-0.200980,0.766262
1.442500,-0.148381,0.768541
1.445000,-0.100330,0.770774
1.447500,0.030531,0.772962
1.450000,0.395838,0.775104
1.452500,0.178703,0.777198
1.455000,-0.019512,0.779246
1.457500,-0.002956,0.781246
1.460000,0.177176,0.783197
1.462500,-0.069990,0.785101
1.465000,-0.213358,0.786955
1.467500,-0.119698,0.788761
1.470000,-0.332037,0.790517
1.472500,-0.135666,0.792223
1.475000,0.113150,0.793879
1.477500,0.102753,0.795484
1.480000,0.171739,0.797038
1.482500,0.136731,0.798542
1.485000,-0.005782,0.799993
1.487500,0.051291,0.801393
1.490000,-0.041723,0.802741
1.492500,-0.142534,0.804037
1.495000,-0.294042,0.805280
1.497500,-0.290335,0.806470
1.500000,-0.073860,0.807606
1.502500,0.392130,0.808690
1.505000,0.298949,0.809720
1.507500,-0.021308,0.810696
1.510000,0.085840,0.811619
1.512500,-0.109360,0.812487
1.515000,-0.193606,0.813300
1.517500,0.102382,0.814060
1.520000,-0.035665,0.814764
1.522500,-0.280670,0.815414
1.525000,-0.282014,0.816009
1.527500,-0.045562,0.816549
1.530000,0.398258,0.817034
1.532500,0.318805,0.817463
1.535000,0.180738,0.817837
1.537500,-0.049365,0.818156
1.540000,-0.079572,0.818419
1.542500,-0.131837,0.818626
1.545000,-0.194227,0.818778
1.547500,-0.022583,0.818875
1.550000,-0.103394,0.818916
1.552500,0.033360,0.818901
1.555000,0.185234,0.818830
1.557500,0.246465,0.818704
1.560000,0.290972,0.818523
1.562500,0.089216,0.818286
1.565000,0.072099,0.817993
1.567500,-0.172701,0.817645
1.570000,-0.177529,0.817241
1.572500,0.029445,0.816783
1.575000,-0.157113,0.816269
1.577500,-0.235796,0.815700
1.580000,-0.175510,0.815076
1.582500,0.292834,0.814397
1.585000,0.284515,0.813664
1.587500,0.216334,0.812876
1.590000,0.056131,0.812034
1.592500,0.009155,0.811138
1.595000,-0.141145,0.810188
1.597500,-0.080112,0.809184
1.600000,0.100652,0.808126
1.602500,-0.149697,0.807015
1.605000,-0.290166,0.805851
1.607500,0.025190,0.804634
1.610000,0.175115,0.803365
1.612500,0.388799,0.802043
1.615000,0.004435,0.800669
1.617500,0.024609,0.799243
1.620000,-0.008145,0.797766
1.622500,-0.232940,0.796237
1.625000,-0.199396,0.794658
1.627500,0.052482,0.793028
1.630000,-0.175523,0.791348
1.632500,-0.008940,0.789618
1.635000,0.227029,0.787838
1.637500,0.185446,0.786009
1.640000,0.335810,0.784132
1.642500,-0.102800,0.782206
1.645000,0.072859,0.780232
1.647500,-0.133150,0.778211
1.650000,-0.091140,0.776142
1.652500,0.042828,0.774026
1.655000,0.071807,0.771864
1.657500,-0.036872,0.769657
1.660000,-0.122551,0.767403
1.662500,0.286439,0.765105
1.665000,0.296995,0.762762
1.667500,0.029366,0.760375
1.670000,-0.029373,0.757944
1.672500,-0.269676,0.755470
1.675000,-0.208746,0.752954
1.677500,-0.246070,0.750395
1.680000,-0.124822,0.747795
1.682500,-0.057720,0.745153
1.685000,0.001305,0.742471
1.687500,0.100582,0.739749
1.690000,0.264349,0.736987
1.692500,0.334065,0.734186
1.695000,0.194705,0.731347
1.697500,-0.053152,0.728470
1.700000,-0.234294,0.725555
1.702500,-0.177770,0.722603
1.705000,0.054624,0.719615
1.707500,0.029600,0.716592
1.710000,-0.012626,0.713533
1.712500,0.007509,0.710440
1.715000,0.125272,0.707312
1.717500,0.198033,0.704152
1.720000,0.266398,0.700958
1.722500,0.023520,0.697732
1.725000,-0.247677,0.694475
1.727500,-0.285818,0.691187
1.730000,-0.200939,0.687868
1.732500,0.113646,0.684520
1.735000,0.005776,0.681142
1.737500,-0.123371,0.677736
1.740000,0.032261,0.674302
1.742500,0.201488,0.670841
1.745000,0.337254,0.667353
1.747500,0.123156,0.663838
1.750000,0.149659,0.660299
1.752500,-0.049754,0.656735
1.755000,-0.123541,0.653146
1.757500,-0.059930,0.649534
1.760000,0.067933,0.645899
1.762500,0.164603,0.642242
1.765000,-0.146538,0.638563
1.767500,0.111243,0.634863
1.770000,0.166318,0.631143
1.772500,0.105188,0.627404
1.775000,-0.041098,0.623645
1.777500,-0.040862,0.619867
1.780000,-0.244839,0.616072
1.782500,-0.276665,0.612260
1.785000,0.034729,0.608431
1.787500,0.252350,0.604587
1.790000,-0.036929,0.600727
1.792500,-0.032503,0.596852
1.795000,0.060278,0.592964
1.797500,0.308547,0.589062
1.800000,0.207004,0.585148
1.802500,-0.019156,0.581221
1.805000,-0.175415,0.577283
1.807500,-0.293708,0.573334
1.810000,-0.285741,0.569375
1.812500,-0.078028,0.565407
1.815000,0.162707,0.561429
1.817500,0.047887,0.557443
1.820000,0.080893,0.553450
1.822500,0.205350,0.549449
1.825000,0.239299,0.545442
1.827500,0.246521,0.541429
1.830000,0.054271,0.537410
1.832500,-0.303506,0.533387
1.835000,-0.145528,0.529360
1.837500,-0.119335,0.525329
1.840000,0.002430,0.521295
1.842500,0.221294,0.517259
1.845000,-0.038365,0.513221
1.847500,0.007121,0.509182
1.850000,0.130746,0.505142
1.852500,0.050433,0.501102
1.855000,0.032920,0.497063
1.857500,-0.129973,0.493025
1.860000,-0.053247,0.488988
1.862500,-0.315790,0.484953
1.865000,-0.071016,0.480921
1.867500,0.165164,0.476892
1.870000,0.269117,0.472867
1.872500,0.117296,0.468847
1.875000,0.209359,0.464831
1.877500,0.155682,0.460820
1.880000,0.152817,0.456815
1.882500,0.160787,0.452816
1.885000,-0.061655,0.448824
1.887500,-0.273739,0.444840
1.890000,-0.453696,0.440863
1.892500,-0.040996,0.436894
1.895000,0.201032,0.432935
1.897500,0.040290,0.428984
1.900000,0.201926,0.425043
1.902500,0.099495,0.421112
1.905000,0.167161,0.417191
1.907500,-0.020022,0.413282
1.910000,-0.073447,0.409383
1.912500,-0.144748,0.405497
1.915000,-0.322630,0.401623
1.917500,-0.236203,0.397762
1.920000,-0.063246,0.393913
1.922500,0.273247,0.390078
1.925000,0.235754,0.386257
1.927500,0.030047,0.382450
1.930000,0.090385,0.378658
1.932500,0.068752,0.374881
1.935000,-0.070767,0.371119
1.937500,0.088993,0.367373
1.940000,-0.251698,0.363642
1.942500,-0.340054,0.359929
1.945000,-0.127968,0.356231
1.947500,0.030873,0.352551
1.950000,0.161399,0.348889
1.952500,0.263051,0.345244
1.955000,0.079605,0.341617
1.957500,0.126607,0.338008
1.960000,-0.015135,0.334418
1.962500,-0.089300,0.330846
1.965000,-0.141370,0.327294
1.967500,-0.101169,0.323762
1.970000,-0.333095,0.320249
1.972500,-0.134342,0.316756
1.975000,0.237439,0.313283
1.977500,0.348804,0.309830
1.980000,0.078366,0.306398
1.982500,0.205000,0.302987
1.985000,0.186543,0.299598
1.987500,0.100835,0.296229
1.990000,-0.201497,0.292882
1.992500,0.006815,0.289557
1.995000,-0.319291,0.286254
1.997500,-0.400446,0.282972
2.000000,0.139404,0.279713
2.002500,0.203402,0.276477
2.005000,0.236876,0.273263
2.007500,-0.025764,0.270072
2.010000,0.069531,0.266904
2.012500,-0.061365,0.263759
2.015000,0.096683,0.260637
2.017500,0.002748,0.257539
2.020000,-0.035603,0.254464
2.022500,-0.136461,0.251413
2.025000,-0.084039,0.248385
2.027500,0.109297,0.245381
2.030000,0.409609,0.242402
2.032500,0.303354,0.239446
2.035000,0.126969,0.236514
2.037500,0.062270,0.233606
2.040000,-0.090605,0.230723
2.042500,-0.000598,0.227864
2.045000,-0.171732,0.225030
2.047500,-0.152269,0.222220
2.050000,-0.189690,0.219434
2.052500,-0.130412,0.216673
2.055000,0.208691,0.213936
2.057500,0.209444,0.211224
2.060000,0.089330,0.208537
2.062500,-0.006168,0.205875
2.065000,0.014537,0.203237
2.067500,-0.214063,0.200624
2.070000,-0.011210,0.198035
2.072500,0.089828,0.195472
2.075000,-0.102932,0.192933
2.077500,-0.297339,0.190418
2.080000,0.117900,0.187929
2.082500,0.285860,0.185464
2.085000,0.438919,0.183023
2.087500,0.226469,0.180608
2.090000,0.047407,0.178217
2.092500,-0.166241,0.175850
2.095000,-0.058008,0.173508
2.097500,-0.061423,0.171190
2.100000,-0.062709,0.168897
2.102500,-0.017604,0.166628
2.105000,-0.024075,0.164384
2.107500,0.011032,0.162164
2.110000,0.013647,0.159967
2.112500,0.014525,0.157795
2.115000,0.013448,0.155647
2.117500,0.005441,0.153523
2.120000,-0.017896,0.151423
2.122500,-0.014139,0.149347
2.125000,0.002480,0.147294
2.127500,-0.008657,0.145265
2.130000,-0.001447,0.143259
2.132500,-0.016314,0.141277
2.135000,0.020341,0.139317
2.137500,0.020056,0.137382
2.140000,0.021362,0.135469
2.142500,0.013372,0.133579
2.145000,-0.013392,0.131712
2.147500,-0.009155,0.129868
2.150000,-0.024529,0.128046
2.152500,0.010065,0.126247
2.155000,-0.004626,0.124470
2.157500,-0.011469,0.122715
2.160000,-0.008532,0.120983
2.162500,0.015115,0.119272
2.165000,0.034296,0.117583
2.167500,0.018876,0.115916
2.170000,0.006948,0.114271
2.172500,-0.016689,0.112647
2.175000,-0.020350,0.111044
2.177500,-0.009138,0.109462
2.180000,0.013337,0.107901
2.182500,-0.004494,0.106361
2.185000,-0.014233,0.104842
2.187500,0.002321,0.103343
2.190000,0.021300,0.101864
2.192500,0.028580,0.100406
2.195000,0.007951,0.098968
2.197500,0.004427,0.097549
2.200000,-0.018936,0.096151
2.202500,-0.030921,0.094771
2.205000,-0.006678,0.093412
2.207500,0.008818,0.092071
2.210000,-0.011764,0.090750
2.212500,-0.009425,0.089447
2.215000,0.008079,0.088163
2.217500,0.028963,0.086898
2.220000,0.009164,0.085651
2.222500,0.008097,0.084422
2.225000,-0.004365,0.083212
2.227500,-0.011623,0.082019
2.230000,-0.026237,0.080844
2.232500,0.004629,0.079686
2.235000,0.001154,0.078546
2.237500,0.003191,0.077423
2.240000,-0.002183,0.076317
2.242500,0.014370,0.075228
2.245000,0.017972,0.074155
2.247500,0.017199,0.073099
2.250000,-0.004256,0.072060
2.252500,-0.022657,0.071036
2.255000,-0.031863,0.070029
2.257500,-0.014652,0.069037
2.260000,-0.004443,0.068061
2.262500,0.007761,0.067100
2.265000,-0.012523,0.066155
2.267500,0.014585,0.065225
2.270000,0.013904,0.064310
2.272500,0.016228,0.063409
2.275000,0.013925,0.062523
2.277500,-0.005810,0.061652
2.280000,-0.009073,0.060794
2.282500,-0.032719,0.059951
2.285000,-0.004337,0.059122
2.287500,0.002894,0.058306
2.290000,0.003819,0.057505
2.292500,0.009576,0.056716
2.295000,0.007652,0.055941
2.297500,0.020677,0.055179
2.300000,0.005421,0.054429
2.302500,-0.002657,0.053693
2.305000,-0.009396,0.052969
2.307500,-0.021355,0.052257
2.310000,-0.027494,0.051558
2.312500,-0.010393,0.050870
2.315000,0.023253,0.050195
2.317500,0.014106,0.049531
2.320000,-0.011023,0.048879
2.322500,0.007852,0.048239
2.325000,0.027783,0.047610
2.327500,0.010733,0.046992
2.330000,-0.000955,0.046384
2.332500,-0.021453,0.045788
2.335000,-0.026885,0.045202
2.337500,-0.017792,0.044627
2.340000,-0.002027,0.044062
2.342500,0.004889,0.043508
2.345000,0.013960,0.042963
2.347500,0.008986,0.042429
2.350000,0.014801,0.041904
2.352500,0.022139,0.041389
2.355000,0.017210,0.040883
2.357500,-0.014546,0.040387
2.360000,-0.023393,0.039899
2.362500,-0.023252,0.039421
2.365000,-0.010344,0.038952
2.367500,0.008253,0.038491
2.370000,0.002493,0.038040
2.372500,0.013220,0.037596
2.375000,-0.002122,0.037161
2.377500,0.002669,0.036735
2.380000,0.005327,0.036316
2.382500,0.014272,0.035905
2.385000,-0.003385,0.035503
2.387500,-0.014740,0.035107
2.390000,-0.034643,0.034720
2.392500,-0.011975,0.034340
2.395000,0.009953,0.033967
2.397500,0.018888,0.033602
2.400000,-0.004540,0.033243
2.402500,0.010973,0.032892
2.405000,0.009812,0.032547
2.407500,0.009870,0.032210
2.410000,-0.007460,0.031878
2.412500,-0.011894,0.031554
2.415000,-0.025175,0.031235
2.417500,-0.030784,0.030923
2.420000,-0.001445,0.030618
2.422500,0.022650,0.030318
2.425000,0.003342,0.030024
2.427500,0.000789,0.029736
2.430000,0.000620,0.029454
2.432500,0.005249,0.029178
2.435000,0.004685,0.028907
2.437500,0.009161,0.028641
2.440000,-0.005840,0.028381
2.442500,-0.033424,0.028126
2.445000,-0.010845,0.027876
2.447500,0.002022,0.027631
2.450000,0.024822,0.027391
2.452500,0.020109,0.027156
2.455000,-0.004461,0.026926
2.457500,0.012068,0.026701
2.460000,0.007270,0.026480
2.462500,0.002904,0.026264
2.465000,0.001188,0.026052
2.467500,-0.023343,0.025844
2.470000,-0.023939,0.025641
2.472500,-0.017920,0.025441
2.475000,0.028003,0.025246
2.477500,0.024380,0.025055
2.480000,0.002181,0.024868
2.482500,-0.002101,0.024684
2.485000,-0.008193,0.024505
2.487500,0.010429,0.024329
2.490000,-0.012730,0.024157
2.492500,-0.009647,0.023988
2.495000,-0.017006,0.023822
2.497500,-0.013126,0.023661
2.500000,-0.006765,0.023502
2.502500,0.018897,0.023347
2.505000,0.018471,0.023195
2.507500,-0.001581,0.023046
2.510000,-0.004003,0.022900
2.512500,-0.001883,0.022757
2.515000,0.001364,0.022617
2.517500,0.004032,0.022480
2.520000,-0.016239,0.022345
2.522500,-0.030364,0.022214
2.525000,-0.009119,0.022085
2.527500,0.012952,0.021958
2.530000,0.035960,0.021835
2.532500,0.011139,0.021714
2.535000,0.014161,0.021595
2.537500,-0.003334,0.021479
2.540000,-0.007939,0.021365
2.542500,0.003803,0.021253
2.545000,-0.006680,0.021144
2.547500,-0.018552,0.021036
2.550000,-0.023581,0.020931
2.552500,-0.006190,0.020828
2.555000,0.020189,0.020727
2.557500,0.036754,0.020629
2.560000,0.018665,0.020532
2.562500,-0.002841,0.020437
2.565000,0.005585,0.020343
2.567500,-0.007491,0.020252
2.570000,-0.008695,0.020163
2.572500,0.005565,0.020075
2.575000,-0.012131,0.019989
2.577500,-0.016919,0.019904
2.580000,-0.010977,0.019821
2.582500,0.029652,0.019740
2.585000,0.035368,0.019661
2.587500,0.005586,0.019582
2.590000,0.002973,0.019506
2.592500,-0.013107,0.019430
2.595000,-0.019194,0.019356
2.597500,-0.015513,0.019284
2.600000,0.003632,0.019213
2.602500,-0.014348,0.019143
2.605000,-0.021480,0.019074
2.607500,0.004092,0.019007
2.610000,0.035630,0.018941
2.612500,0.030150,0.018876
2.615000,0.001718,0.018812
2.617500,0.009722,0.018749
2.620000,-0.006901,0.018687
2.622500,-0.021032,0.018627
2.625000,-0.012704,0.018567
2.627500,-0.012692,0.018508
2.630000,-0.003705,0.018451
2.632500,-0.009673,0.018394
2.635000,0.010730,0.018338
2.637500,0.021886,0.018284
2.640000,0.004514,0.018230
2.642500,-0.002805,0.018177
2.645000,-0.012014,0.018124
2.647500,-0.015195,0.018073
2.650000,-0.001107,0.018022
2.652500,-0.003353,0.017972
2.655000,-0.012816,0.017923
2.657500,-0.017153,0.017875
2.660000,0.002020,0.017827
2.662500,0.024155,0.017780
2.665000,0.029971,0.017733
2.667500,0.012476,0.017688
2.670000,0.011236,0.017643
2.672500,-0.002721,0.017598
2.675000,-0.025014,0.017554
2.677500,-0.007170,0.017511
2.680000,0.006072,0.017468
2.682500,-0.010568,0.017426
2.685000,-0.018852,0.017384
2.687500,0.002950,0.017343
2.690000,0.014866,0.017302
2.692500,0.015508,0.017262
2.695000,0.011130,0.017222
2.697500,-0.013330,0.017183
2.700000,-0.004272,0.017144
2.702500,-0.009864,0.017106
2.705000,0.005347,0.017068
2.707500,0.002639,0.017030
2.710000,0.006086,0.016993
2.712500,-0.018157,0.016956
2.715000,0.002019,0.016919
2.717500,0.011995,0.016883
2.720000,0.005512,0.016847
2.722500,-0.002271,0.016812
2.725000,-0.007085,0.016777
2.727500,-0.015212,0.016742
2.730000,-0.024718,0.016707
2.732500,-0.014579,0.016673
2.735000,0.012090,0.016639
2.737500,-0.009415,0.016605
2.740000,0.001024,0.016572
2.742500,0.005523,0.016539
2.745000,0.012691,0.016506
2.747500,0.022474,0.016473
2.750000,0.011643,0.016441
2.752500,-0.005821,0.016409
2.755000,-0.029038,0.016377
2.757500,-0.026459,0.016345
2.760000,0.009230,0.016313
2.762500,-0.007401,0.016282
2.765000,-0.015817,0.016251
2.767500,0.014624,0.016219
2.770000,0.024726,0.016189
2.772500,0.025764,0.016158
2.775000,0.012704,0.016127
2.777500,-0.004437,0.016097
2.780000,-0.023975,0.016067
2.782500,-0.025100,0.016037
2.785000,-0.000487,0.016007
2.787500,-0.004854,0.015977
2.790000,-0.005583,0.015947
2.792500,-0.000556,0.015918
2.795000,0.005291,0.015888
2.797500,0.024875,0.015859
2.800000,0.013055,0.015830
2.802500,0.012952,0.015801
2.805000,-0.003113,0.015772
2.807500,-0.021748,0.015743
2.810000,-0.018403,0.015714
2.812500,-0.004141,0.015686
2.815000,0.006923,0.015657
2.817500,-0.004117,0.015629
2.820000,-0.003259,0.015600
2.822500,0.016825,0.015572
2.825000,0.006057,0.015544
2.827500,0.009656,0.015516
2.830000,0.004372,0.015488
2.832500,-0.019908,0.015460
2.835000,-0.014275,0.015432
2.837500,-0.030470,0.015404
2.840000,0.009352,0.015377
2.842500,0.022125,0.015349
2.845000,0.006775,0.015322
2.847500,0.014674,0.015294
2.850000,0.024266,0.015267
2.852500,0.005844,0.015239
2.855000,0.015788,0.015212
2.857500,-0.009895,0.015185
2.860000,-0.014850,0.015158
2.862500,-0.016857,0.015131
2.865000,-0.006814,0.015104
2.867500,-0.002445,0.015077
2.870000,0.005139,0.015051
2.872500,0.013199,0.015024
2.875000,-0.003892,0.014998
2.877500,0.008017,0.014971
2.880000,0.022466,0.014945
2.882500,0.010386,0.014918
2.885000,-0.016704,0.014892
2.887500,-0.024954,0.014866
2.890000,-0.023396,0.014840
2.892500,0.000204,0.014814
2.895000,0.005249,0.014789
2.897500,0.006618,0.014763
2.900000,0.012345,0.014737
2.902500,0.000893,0.014712
2.905000,0.019654,0.014687
2.907500,-0.003358,0.014662
2.910000,0.002488,0.014637
2.912500,-0.015866,0.014612
2.915000,-0.033103,0.014587
2.917500,-0.016482,0.014562
2.920000,0.004566,0.014538
2.922500,0.007326,0.014514
2.925000,0.008957,0.014490
2.927500,0.009678,0.014466
2.930000,0.014399,0.014442
2.932500,0.006071,0.014419
2.935000,0.007286,0.014396
2.937500,-0.000749,0.014373
2.940000,-0.009191,0.014350
2.942500,-0.015825,0.014327
2.945000,-0.011522,0.014305
2.947500,0.009160,0.014283
2.950000,0.022135,0.014261
2.952500,0.014189,0.014240
2.955000,0.005942,0.014218
2.957500,-0.002686,0.014198
2.960000,0.000991,0.014177
2.962500,-0.011931,0.014157
2.965000,-0.013132,0.014137
2.967500,-0.012272,0.014117
2.970000,-0.028850,0.014098
2.972500,-0.002011,0.014080
2.975000,0.006926,0.014061
2.977500,0.019981,0.014044
2.980000,0.011089,0.014026
2.982500,0.015024,0.014009
2.985000,0.005087,0.013993
2.987500,-0.010791,0.013977
2.990000,0.004487,0.013962
2.992500,0.005982,0.013947
2.995000,-0.028504,0.013933
2.997500,-0.016351,0.013919
3.000000,0.012009,0.013906
3.002500,0.010299,0.013894
3.005000,0.022478,0.013882
3.007500,0.005601,0.013871
3.010000,0.010446,0.013861
3.012500,0.012389,0.013852
3.015000,0.006472,0.013843
3.017500,0.005522,0.013835
3.020000,-0.020464,0.013828
3.022500,-0.032878,0.013822
3.025000,-0.025589,0.013817
3.027500,0.019530,0.013813
3.030000,0.036709,0.013810
3.032500,0.010432,0.013808
3.035000,-0.004325,0.013807
3.037500,-0.004842,0.013807
3.040000,-0.002841,0.013808
3.042500,-0.008093,0.013811
3.045000,-0.006364,0.013815
3.047500,-0.018462,0.013820
3.050000,-0.025200,0.013826
3.052500,-0.010540,0.013834
3.055000,0.018363,0.013843
3.057500,0.031633,0.013854
3.060000,0.017651,0.013866
3.062500,0.001017,0.013880
3.065000,0.005962,0.013896
3.067500,-0.009307,0.013913
3.070000,-0.019441,0.013932
3.072500,-0.005228,0.013953
3.075000,-0.013932,0.013976
3.077500,-0.022986,0.014001
3.080000,0.002034,0.014028
3.082500,0.027701,0.014057
3.085000,0.035678,0.014088
3.087500,0.021668,0.014121
3.090000,0.005781,0.014157
3.092500,0.002551,0.014195
3.095000,-0.004077,0.014236
3.097500,-0.007279,0.014279
3.100000,-0.007627,0.014325
3.102500,-0.019141,0.014374
3.105000,-0.020042,0.014425
3.107500,0.012604,0.014480
3.110000,0.035815,0.014537
3.112500,0.012140,0.014598
3.115000,0.013760,0.014661
3.117500,-0.003492,0.014729
3.120000,-0.022133,0.014799
3.122500,-0.005638,0.014873
3.125000,-0.011206,0.014951
3.127500,0.003565,0.015032
3.130000,-0.006381,0.015117
3.132500,-0.020845,0.015207
3.135000,0.022948,0.015300
3.137500,0.015672,0.015398
3.140000,0.025771,0.015500
3.142500,0.012241,0.015606
3.145000,0.001051,0.015717
3.147500,-0.014865,0.015833
3.150000,-0.023570,0.015954
3.152500,-0.011455,0.016079
3.155000,-0.012684,0.016210
3.157500,-0.017445,0.016346
3.160000,0.003265,0.016488
3.162500,0.025407,0.016635
3.165000,0.013007,0.016788
3.167500,0.022659,0.016947
3.170000,0.004917,0.017113
3.172500,-0.012397,0.017284
3.175000,-0.007458,0.017462
3.177500,-0.013623,0.017646
3.180000,-0.009729,0.017838
3.182500,-0.004316,0.018036
3.185000,-0.021141,0.018242
3.187500,-0.003534,0.018454
3.190000,0.034917,0.018675
3.192500,0.023318,0.018903
3.195000,0.011365,0.019139
3.197500,0.009255,0.019383
3.200000,-0.021534,0.019636
3.202500,-0.012728,0.019897
3.205000,-0.007519,0.020168
3.207500,-0.009674,0.020447
3.210000,-0.002433,0.020735
3.212500,0.001247,0.021033
3.215000,-0.002767,0.021340
3.217500,0.029637,0.021658
3.220000,0.007858,0.021986
3.222500,0.010261,0.022324
3.225000,-0.011444,0.022673
3.227500,-0.009866,0.023032
3.230000,-0.018417,0.023403
3.232500,0.006430,0.023786
3.235000,0.014602,0.024180
3.237500,-0.010127,0.024586
3.240000,0.006153,0.025004
3.242500,0.025845,0.025435
3.245000,0.010178,0.025879
3.247500,0.005838,0.026335
3.250000,0.007099,0.026806
3.252500,-0.024275,0.027289
3.255000,-0.016663,0.027787
3.257500,-0.012577,0.028299
3.260000,0.001847,0.028826
3.262500,0.000446,0.029367
3.265000,-0.010322,0.029924
3.267500,0.000182,0.030496
3.270000,0.030540,0.031084
3.272500,0.012105,0.031688
3.275000,0.006930,0.032309
3.277500,-0.010617,0.032946
3.280000,-0.018435,0.033601
3.282500,-0.021261,0.034273
3.285000,-0.012593,0.034963
3.287500,0.004720,0.035670
3.290000,0.013981,0.036397
3.292500,-0.001110,0.037142
3.295000,0.015938,0.037906
3.297500,0.013868,0.038690
3.300000,0.003551,0.039494
3.302500,0.007748,0.040317
3.305000,-0.013017,0.041162
3.307500,-0.021856,0.042027
3.310000,-0.013197,0.042914
3.312500,-0.012974,0.043822
3.315000,0.005411,0.044753
3.317500,0.009091,0.045705
3.320000,-0.008897,0.046681
3.322500,0.010241,0.047680
3.325000,0.023478,0.048702
3.327500,0.009255,0.049748
3.330000,0.000060,0.050818
3.332500,-0.014506,0.051913
3.335000,-0.019637,0.053033
3.337500,-0.027648,0.054178
3.340000,0.011112,0.055349
3.342500,0.000270,0.056546
3.345000,0.011398,0.057770
3.347500,0.004307,0.059020
3.350000,0.020808,0.060298
3.352500,0.020848,0.061603
3.355000,0.016398,0.062936
3.357500,0.006099,0.064298
3.360000,-0.021587,0.065688
3.362500,-0.021359,0.067108
3.365000,-0.002927,0.068556
3.367500,0.004776,0.070035
3.370000,0.025775,0.071544
3.372500,0.001161,0.073083
3.375000,0.012945,0.074653
3.377500,0.008380,0.076255
3.380000,0.003045,0.077888
3.382500,-0.006106,0.079553
3.385000,-0.017000,0.081250
3.387500,-0.020251,0.082980
3.390000,-0.014680,0.084742
3.392500,-0.011506,0.086538
3.395000,0.026975,0.088368
3.397500,0.008187,0.090231
3.400000,0.000586,0.092128
3.402500,0.009747,0.094060
3.405000,0.016347,0.096027
3.407500,0.005772,0.098029
3.410000,0.002548,0.100066
3.412500,-0.010246,0.102139
3.415000,-0.027778,0.104247
3.417500,-0.016681,0.106392
3.420000,0.013504,0.108573
3.422500,0.022361,0.110791
3.425000,0.008781,0.113046
3.427500,0.004927,0.115338
3.430000,0.000945,0.117667
3.432500,0.002390,0.120033
3.435000,0.012277,0.122438
3.437500,-0.006870,0.124880
3.440000,-0.015734,0.127360
3.442500,-0.021381,0.129879
3.445000,-0.009755,0.132435
3.447500,0.021889,0.135031
3.450000,0.010388,0.137665
3.452500,0.021018,0.140337
3.455000,0.008965,0.143049
3.457500,-0.001737,0.145799
3.460000,-0.006691,0.148589
3.462500,-0.002094,0.151417
3.465000,-0.002924,0.154285
3.467500,-0.006620,0.157192
3.470000,-0.015451,0.160138
3.472500,0.003101,0.163123
3.475000,0.005874,0.166147
3.477500,0.025838,0.169210
3.480000,0.007882,0.172313
3.482500,0.012616,0.175454
3.485000,-0.000868,0.178634
3.487500,-0.013092,0.181854
3.490000,-0.009174,0.185111
3.492500,-0.014932,0.188408
3.495000,-0.009162,0.191743
3.497500,-0.030487,0.195116
3.500000,0.007676,0.198527
3.502500,0.017678,0.201977
3.505000,0.029318,0.205463
3.507500,0.015925,0.208988
3.510000,0.010756,0.212549
3.512500,-0.005907,0.216148
3.515000,-0.011928,0.219783
3.517500,-0.014260,0.223454
3.520000,-0.005930,0.227161
3.522500,-0.029794,0.230904
3.525000,-0.023349,0.234682
3.527500,-0.001845,0.238495
3.530000,0.021824,0.242342
3.532500,0.024485,0.246224
3.535000,0.015900,0.250139
3.537500,0.006239,0.254086
3.540000,0.006679,0.258067
3.542500,-0.017503,0.262080
3.545000,0.001336,0.266124
3.547500,-0.015662,0.270199
3.550000,-0.031206,0.274304
3.552500,0.000007,0.278439
3.555000,0.011717,0.282603
3.557500,0.028628,0.286796
3.560000,0.025662,0.291017
3.562500,-0.004034,0.295264
3.565000,-0.009897,0.299538
3.567500,-0.002811,0.303838
3.570000,-0.013145,0.308163
3.572500,-0.006949,0.312512
3.575000,-0.002270,0.316884
3.577500,-0.029390,0.321279
3.580000,0.009291,0.325696
3.582500,0.018004,0.330134
3.585000,0.012933,0.334591
3.587500,0.019601,0.339068
3.590000,0.000765,0.343563
3.592500,-0.007848,0.348076
3.595000,-0.018058,0.352604
3.597500,0.005539,0.357149
3.600000,0.096321,0.361707
3.602500,-0.208973,0.366279
3.605000,-0.144557,0.370863
3.607500,-0.062606,0.375459
3.610000,0.276617,0.380065
3.612500,0.380119,0.384680
3.615000,0.237527,0.389303
3.617500,-0.106583,0.393933
3.620000,-0.042968,0.398569
3.622500,-0.170046,0.403210
3.625000,-0.154852,0.407854
3.627500,-0.180556,0.412500
3.630000,-0.126913,0.417148
3.632500,-0.242695,0.421796
3.635000,0.208725,0.426442
3.637500,0.184947,0.431086
3.640000,0.295855,0.435727
3.642500,0.025004,0.440362
3.645000,-0.102396,0.444991
3.647500,-0.082503,0.449613
3.650000,-0.317509,0.454226
3.652500,0.003312,0.458828
3.655000,-0.042335,0.463420
3.657500,-0.012618,0.467998
3.660000,0.071456,0.472563
3.662500,0.138832,0.477112
3.665000,0.410572,0.481644
3.667500,0.211335,0.486159
3.670000,0.130385,0.490654
3.672500,-0.265165,0.495128
3.675000,-0.231495,0.499580
3.677500,-0.046279,0.504008
3.680000,0.030767,0.508412
3.682500,-0.150470,0.512789
3.685000,-0.119731,0.517139
3.687500,0.183966,0.521459
3.690000,0.267434,0.525750
3.692500,0.224679,0.530008
3.695000,0.141565,0.534233
3.697500,-0.019666,0.538424
3.700000,-0.190038,0.542579
3.702500,-0.195803,0.546697
3.705000,-0.128277,0.550776
3.707500,-0.028831,0.554815
3.710000,-0.122370,0.558813
3.712500,-0.076189,0.562768
3.715000,0.025303,0.566679
3.717500,0.197282,0.570544
3.720000,0.115141,0.574363
3.722500,-0.003866,0.578134
3.725000,-0.171913,0.581856
3.727500,-0.148902,0.585527
3.730000,-0.152521,0.589146
3.732500,-0.097354,0.592712
3.735000,0.065243,0.596224
3.737500,-0.148067,0.599680
3.740000,-0.038518,0.603079
3.742500,0.179971,0.606419
3.745000,0.288816,0.609701
3.747500,0.179340,0.612922
3.750000,0.148134,0.616081
3.752500,-0.068688,0.619178
3.755000,-0.214838,0.622210
3.757500,-0.113022,0.625178
3.760000,0.074160,0.628079
3.762500,0.018438,0.630913
3.765000,0.036645,0.633678
3.767500,0.068100,0.636375
3.770000,0.167634,0.639001
3.772500,0.288071,0.641555
3.775000,0.028329,0.644038
3.777500,0.053705,0.646447
3.780000,-0.194793,0.648782
3.782500,-0.242643,0.651042
3.785000,0.011811,0.653226
3.787500,0.052987,0.655333
3.790000,-0.027444,0.657363
3.792500,-0.071587,0.659314
3.795000,0.087256,0.661187
3.797500,0.359010,0.662979
3.800000,0.275848,0.664691
3.802500,-0.047006,0.666322
3.805000,-0.251064,0.667871
3.807500,-0.109400,0.669338
3.810000,-0.202189,0.670722
3.812500,-0.168829,0.672022
3.815000,0.293121,0.673238
3.817500,0.190984,0.674370
3.820000,0.010155,0.675417
3.822500,0.129664,0.676378
3.825000,0.194560,0.677254
3.827500,0.234243,0.678043
3.830000,0.011403,0.678746
3.832500,-0.097828,0.679362
3.835000,-0.201905,0.679892
3.837500,-0.119127,0.680334
3.840000,0.168683,0.680689
3.842500,0.042652,0.680956
3.845000,0.093234,0.681135
3.847500,-0.110360,0.681227
3.850000,0.232447,0.681231
3.852500,0.052705,0.681147
3.855000,0.196578,0.680976
3.857500,-0.104085,0.680716
3.860000,-0.079339,0.680369
3.862500,-0.178942,0.679935
3.865000,-0.303781,0.679413
3.867500,0.211339,0.678804
3.870000,0.150819,0.678107
3.872500,0.000498,0.677325
3.875000,0.184004,0.676455
3.877500,0.294184,0.675500
3.880000,-0.020491,0.674459
3.882500,-0.132227,0.673332
3.885000,0.046414,0.672121
3.887500,-0.381455,0.670825
3.890000,-0.149798,0.669444
3.892500,-0.149444,0.667981
3.895000,0.267997,0.666434
3.897500,0.060243,0.664805
3.900000,-0.003373,0.663095
3.902500,-0.009677,0.661303
3.905000,0.189160,0.659430
3.907500,0.073541,0.657478
3.910000,0.105472,0.655447
3.912500,0.002468,0.653338
3.915000,-0.296474,0.651150
3.917500,-0.313532,0.648887
3.920000,0.097125,0.646547
3.922500,0.258307,0.644132
3.925000,0.062834,0.641644
3.927500,0.135638,0.639082
3.930000,0.204488,0.636447
3.932500,0.131287,0.633742
3.935000,0.171610,0.630966
3.937500,-0.088485,0.628120
3.940000,-0.307058,0.625207
3.942500,-0.454775,0.622226
3.945000,-0.283392,0.619179
3.947500,0.039139,0.616067
3.950000,0.138567,0.612891
3.952500,0.110750,0.609652
3.955000,0.018393,0.606351
3.957500,0.005475,0.602990
3.960000,0.199912,0.599570
3.962500,-0.030544,0.596091
3.965000,-0.035836,0.592556
3.967500,-0.221024,0.588965
3.970000,-0.367565,0.585319
3.972500,-0.118880,0.581621
3.975000,0.196599,0.577870
3.977500,0.103039,0.574069
3.980000,0.202058,0.570219
3.982500,0.023539,0.566320
3.985000,0.114917,0.562375
3.987500,-0.018184,0.558385
3.990000,-0.167592,0.554351
3.992500,-0.059287,0.550273
3.995000,-0.187227,0.546155
3.997500,-0.428064,0.541997
4.000000,0.121005,0.537800
4.002500,0.259738,0.533566
4.005000,0.169172,0.529295
4.007500,0.196841,0.524991
4.010000,-0.031241,0.520653
4.012500,0.047299,0.516284
4.015000,0.006257,0.511884
4.017500,-0.114685,0.507455
4.020000,-0.215389,0.502999
4.022500,-0.315272,0.498516
4.025000,-0.353058,0.494009
4.027500,0.024203,0.489477
4.030000,0.291956,0.484924
4.032500,0.316999,0.480350
4.035000,-0.080616,0.475757
4.037500,0.021065,0.471146
4.040000,0.099662,0.466518
4.042500,0.035570,0.461874
4.045000,-0.162972,0.457217
4.047500,-0.138835,0.452547
4.050000,-0.196242,0.447865
4.052500,-0.254311,0.443173
4.055000,0.338304,0.438473
4.057500,0.439455,0.433765
4.060000,0.267238,0.429051
4.062500,-0.050650,0.424332
4.065000,-0.097001,0.419609
4.067500,-0.229046,0.414884
4.070000,-0.243319,0.410158
4.072500,0.044307,0.405431
4.075000,-0.290196,0.400706
4.077500,-0.302049,0.395983
4.080000,-0.048335,0.391264
4.082500,0.148516,0.386550
4.085000,0.360904,0.381841
4.087500,0.124155,0.377140
4.090000,-0.060420,0.372446
4.092500,0.039913,0.367762
4.095000,-0.064497,0.363088
4.097500,0.041282,0.358426
4.100000,0.065386,0.353775
4.102500,-0.014128,0.349139
4.105000,-0.019615,0.344516
4.107500,0.012215,0.339909
4.110000,0.032136,0.335319
4.112500,0.011039,0.330746
4.115000,0.006044,0.326191
4.117500,0.010541,0.321655
4.120000,-0.005324,0.317139
4.122500,-0.021027,0.312645
4.125000,0.004365,0.308172
4.127500,0.003708,0.303721
4.130000,-0.018253,0.299295
4.132500,-0.008009,0.294892
4.135000,0.014347,0.290514
4.137500,0.035590,0.286162
4.140000,0.020110,0.281837
4.142500,0.015632,0.277539
4.145000,-0.010106,0.273268
4.147500,-0.017116,0.269026
4.150000,-0.009492,0.264814
4.152500,-0.000943,0.260631
4.155000,-0.005364,0.256478
4.157500,-0.023293,0.252357
4.160000,-0.006791,0.248267
4.162500,0.026191,0.244209
4.165000,0.021411,0.240184
4.167500,0.018019,0.236192
4.170000,0.003809,0.232233
4.172500,-0.000047,0.228308
4.175000,-0.026575,0.224418
4.177500,0.001640,0.220563
4.180000,-0.001488,0.216743
4.182500,0.000951,0.212959
4.185000,-0.015806,0.209211
4.187500,0.001531,0.205499
4.190000,0.023479,0.201823
4.192500,0.025105,0.198185
4.195000,0.005638,0.194584
4.197500,-0.009480,0.191020
4.200000,-0.012249,0.187494
4.202500,-0.016026,0.184006
4.205000,0.001682,0.180556
4.207500,0.002195,0.177145
4.210000,-0.003800,0.173772
4.212500,-0.010765,0.170437
4.215000,0.017162,0.167142
4.217500,0.026171,0.163885
4.220000,0.026684,0.160667
4.222500,-0.004155,0.157488
4.225000,-0.011762,0.154349
4.227500,-0.019781,0.151248
4.230000,-0.013788,0.148187
4.232500,0.009219,0.145165
4.235000,0.001488,0.142182
4.237500,-0.012573,0.139238
4.240000,0.008496,0.136334
4.242500,0.026750,0.133468
4.245000,0.016428,0.130642
4.247500,0.010214,0.127855
4.250000,0.001981,0.125106
4.252500,-0.012683,0.122396
4.255000,-0.018799,0.119725
4.257500,-0.023050,0.117093
4.260000,0.007533,0.114499
4.262500,0.012881,0.111943
4.265000,0.004336,0.109425
4.267500,0.000648,0.106945
4.270000,0.011577,0.104503
4.272500,0.021587,0.102099
4.275000,0.008570,0.099732
4.277500,-0.010737,0.097402
4.280000,-0.013753,0.095109
4.282500,-0.029688,0.092853
4.285000,0.002941,0.090633
4.287500,0.019256,0.088449
4.290000,-0.001264,0.086301
4.292500,0.005463,0.084189
4.295000,0.004496,0.082113
4.297500,0.030691,0.080071
4.300000,0.022999,0.078064
4.302500,0.016034,0.076092
4.305000,-0.014754,0.074154
4.307500,-0.009774,0.072250
4.310000,-0.018875,0.070380
4.312500,0.007523,0.068543
4.315000,0.023469,0.066738
4.317500,0.008541,0.064967
4.320000,-0.004876,0.063228
4.322500,0.007200,0.061521
4.325000,0.004801,0.059845
4.327500,0.011466,0.058201
4.330000,-0.008184,0.056587
4.332500,-0.015573,0.055004
4.335000,-0.020994,0.053452
4.337500,-0.026645,0.051929
4.340000,0.007102,0.050436
4.342500,0.025210,0.048972
4.345000,-0.000327,0.047537
4.347500,0.010506,0.046130
4.350000,0.010531,0.044751
4.352500,0.011367,0.043400
4.355000,0.010808,0.042076
4.357500,0.000020,0.040779
4.360000,-0.010203,0.039509
4.362500,-0.026758,0.038264
4.365000,-0.023270,0.037046
4.367500,0.001684,0.035853
4.370000,0.023345,0.034685
4.372500,0.013800,0.033542
4.375000,0.016566,0.032423
4.377500,0.022909,0.031328
4.380000,0.019737,0.030256
4.382500,0.010470,0.029208
4.385000,-0.008561,0.028183
4.387500,-0.009846,0.027180
4.390000,-0.020981,0.026199
4.392500,-0.005606,0.025240
4.395000,0.013271,0.024302
4.397500,0.003029,0.023385
4.400000,0.015832,0.022489
4.402500,-0.001676,0.021613
4.405000,0.019929,0.020757
4.407500,0.006662,0.019921
4.410000,-0.009849,0.019104
4.412500,-0.003993,0.018306
4.415000,-0.027186,0.017526
4.417500,-0.031681,0.016765
4.420000,0.010584,0.016021
4.422500,0.010925,0.015295
4.425000,0.001259,0.014586
4.427500,0.013071,0.013894
4.430000,0.003804,0.013218
4.432500,0.017620,0.012559
4.435000,-0.007562,0.011916
4.437500,0.000938,0.011288
4.440000,-0.023989,0.010675
4.442500,-0.031406,0.010077
4.445000,-0.004531,0.009494
4.447500,-0.002577,0.008926
4.450000,0.018922,0.008371
4.452500,0.001328,0.007830
4.455000,0.000754,0.007303
4.457500,0.013980,0.006788
4.460000,0.012666,0.006287
4.462500,-0.011048,0.005798
4.465000,-0.006549,0.005322
4.467500,-0.017701,0.004858
4.470000,-0.019467,0.004405
4.472500,0.001463,0.003964
4.475000,0.027058,0.003534
4.477500,0.030245,0.003115
4.480000,0.016247,0.002707
4.482500,-0.004586,0.002310
4.485000,0.001625,0.001923
4.487500,-0.008806,0.001545
4.490000,-0.009349,0.001178
4.492500,-0.018687,0.000820
4.495000,-0.018508,0.000472
4.497500,-0.009889,0.000132
4.500000,-0.007161,-0.000198
4.502500,0.023526,-0.000520
4.505000,0.024836,-0.000833
4.507500,0.000574,-0.001138
4.510000,0.014794,-0.001436
4.512500,-0.007294,-0.001725
4.515000,-0.014554,-0.002006
4.517500,-0.015763,-0.002280
4.520000,-0.018492,-0.002547
4.522500,-0.008828,-0.002807
4.525000,-0.009366,-0.003060
4.527500,0.013354,-0.003306
4.530000,0.012319,-0.003546
4.532500,0.014521,-0.003779
4.535000,0.004246,-0.004006
4.537500,-0.005252,-0.004227
4.540000,0.000898,-0.004442
4.542500,-0.001496,-0.004652
4.545000,-0.002972,-0.004856
4.547500,-0.014098,-0.005054
4.550000,-0.032643,-0.005247
4.552500,-0.008840,-0.005435
4.555000,0.012805,-0.005618
4.557500,0.023761,-0.005797
4.560000,0.003923,-0.005970
4.562500,0.006680,-0.006139
4.565000,-0.007079,-0.006304
4.567500,-0.006758,-0.006464
4.570000,-0.015748,-0.006620
4.572500,0.001042,-0.006772
4.575000,-0.002471,-0.006920
4.577500,-0.009898,-0.007064
4.580000,-0.006809,-0.007205
4.582500,0.018203,-0.007341
4.585000,0.034109,-0.007475
4.587500,0.001044,-0.007604
4.590000,0.004734,-0.007731
4.592500,-0.017189,-0.007854
4.595000,-0.023874,-0.007974
4.597500,-0.018145,-0.008092
4.600000,0.000272,-0.008206
4.602500,-0.015398,-0.008317
4.605000,-0.010954,-0.008426
4.607500,0.001190,-0.008532
4.610000,0.032018,-0.008635
4.612500,0.027721,-0.008736
4.615000,0.012046,-0.008834
4.617500,0.008865,-0.008930
4.620000,-0.019629,-0.009024
4.622500,-0.021233,-0.009116
4.625000,-0.009780,-0.009205
4.627500,0.004804,-0.009292
4.630000,-0.022491,-0.009378
4.632500,-0.012790,-0.009461
4.635000,0.008411,-0.009542
4.637500,0.014425,-0.009622
4.640000,0.015343,-0.009700
4.642500,0.013897,-0.009776
4.645000,-0.017907,-0.009850
4.647500,-0.002427,-0.009923
4.650000,-0.000295,-0.009994
4.652500,-0.011266,-0.010064
4.655000,-0.001131,-0.010132
4.657500,-0.025791,-0.010199
4.660000,0.005015,-0.010264
4.662500,0.020194,-0.010329
4.665000,0.023954,-0.010391
4.667500,0.005904,-0.010453
4.670000,-0.001491,-0.010514
4.672500,0.002566,-0.010573
4.675000,-0.024005,-0.010631
4.677500,-0.004885,-0.010688
4.680000,0.001864,-0.010744
4.682500,-0.014445,-0.010799
4.685000,-0.011327,-0.010853
4.687500,0.009563,-0.010906
4.690000,0.030697,-0.010958
4.692500,0.011823,-0.011009
4.695000,0.003615,-0.011059
4.697500,0.002169,-0.011109
4.700000,-0.020383,-0.011158
4.702500,-0.029306,-0.011205
4.705000,-0.003685,-0.011253
4.707500,-0.006564,-0.011299
4.710000,-0.015026,-0.011345
4.712500,0.001018,-0.011389
4.715000,0.011780,-0.011434
4.717500,0.034599,-0.011477
4.720000,0.012705,-0.011520
4.722500,-0.004651,-0.011563
4.725000,-0.005893,-0.011604
4.727500,-0.018501,-0.011646
4.730000,-0.029188,-0.011686
4.732500,0.010598,-0.011726
4.735000,0.012576,-0.011766
4.737500,0.004299,-0.011805
4.740000,0.009055,-0.011843
4.742500,0.026556,-0.011881
4.745000,0.029809,-0.011919
4.747500,0.022187,-0.011956
4.750000,0.003708,-0.011992
4.752500,-0.016375,-0.012029
4.755000,-0.030170,-0.012064
4.757500,-0.019147,-0.012100
4.760000,0.010152,-0.012135
4.762500,0.007198,-0.012169
4.765000,-0.010286,-0.012203
4.767500,0.000224,-0.012237
4.770000,0.011839,-0.012270
4.772500,0.015966,-0.012303
4.775000,0.004463,-0.012336
4.777500,0.005345,-0.012368
4.780000,-0.028736,-0.012400
4.782500,-0.025629,-0.012431
4.785000,-0.003563,-0.012463
4.787500,0.016132,-0.012494
4.790000,0.005808,-0.012524
4.792500,-0.008926,-0.012554
4.795000,0.003270,-0.012584
4.797500,0.006167,-0.012614
4.800000,0.010526,-0.012643
4.802500,0.003338,-0.012672
4.805000,-0.016282,-0.012701
4.807500,-0.008246,-0.012729
4.810000,-0.010040,-0.012757
4.812500,-0.014777,-0.012785
4.815000,0.011005,-0.012812
4.817500,0.010111,-0.012839
4.820000,-0.001499,-0.012866
4.822500,0.009658,-0.012892
4.825000,0.013412,-0.012919
4.827500,0.006130,-0.012944
4.830000,0.000157,-0.012970
4.832500,-0.013531,-0.012995
4.835000,-0.034511,-0.013020
4.837500,-0.010870,-0.013045
4.840000,-0.008246,-0.013069
4.842500,0.013859,-0.013094
4.845000,-0.008919,-0.013117
4.847500,0.003044,-0.013141
4.850000,0.015711,-0.013164
4.852500,0.024146,-0.013187
4.855000,0.016309,-0.013209
4.857500,-0.012488,-0.013232
4.860000,-0.004075,-0.013253
4.862500,-0.036788,-0.013275
4.865000,-0.021961,-0.013296
4.867500,0.015122,-0.013317
4.870000,0.013765,-0.013338
4.872500,0.006361,-0.013358
4.875000,0.003948,-0.013378
4.877500,0.014445,-0.013397
4.880000,0.016902,-0.013417
4.882500,0.009537,-0.013435
4.885000,-0.016024,-0.013454
4.887500,-0.020411,-0.013472
4.890000,-0.018424,-0.013490
4.892500,0.003712,-0.013507
4.895000,0.009870,-0.013524
4.897500,0.003426,-0.013541
4.900000,-0.000989,-0.013557
4.902500,-0.001267,-0.013573
4.905000,0.015872,-0.013588
4.907500,0.007339,-0.013603
4.910000,-0.012593,-0.013617
4.912500,-0.016214,-0.013632
4.915000,-0.018807,-0.013645
4.917500,-0.032090,-0.013658
4.920000,-0.000275,-0.013671
4.922500,0.026724,-0.013683
4.925000,0.023917,-0.013695
4.927500,0.004904,-0.013707
4.930000,0.019072,-0.013717
4.932500,0.018291,-0.013728
4.935000,0.001212,-0.013738
4.937500,-0.009437,-0.013747
4.940000,-0.010248,-0.013756
4.942500,-0.026208,-0.013764
4.945000,-0.025653,-0.013772
4.947500,0.019612,-0.013779
4.950000,0.027657,-0.013786
4.952500,0.020842,-0.013792
4.955000,0.001317,-0.013797
4.957500,0.008674,-0.013802
4.960000,0.013667,-0.013806
4.962500,0.002068,-0.013810
4.965000,-0.001220,-0.013813
4.967500,-0.021856,-0.013815
4.970000,-0.034718,-0.013816
4.972500,-0.014277,-0.013817
4.975000,0.018916,-0.013818
4.977500,0.032311,-0.013817
4.980000,0.015861,-0.013816
4.982500,0.005447,-0.013814
4.985000,0.011583,-0.013812
4.987500,0.003311,-0.013808
4.990000,-0.005322,-0.013804
4.992500,0.000324,-0.013799
4.995000,-0.025969,-0.013793
4.997500,-0.030943,-0.013787
5.000000,-0.002365,-0.013780
5.002500,0.017796,-0.013771
5.005000,0.023315,-0.013762
5.007500,-0.002826,-0.013752
5.010000,-0.006704,-0.013741
5.012500,-0.005093,-0.013730
5.015000,-0.011522,-0.013717
5.017500,-0.015061,-0.013703
5.020000,0.002068,-0.013688
5.022500,-0.028933,-0.013673
5.025000,-0.028830,-0.013656
5.027500,0.002772,-0.013638
5.030000,0.022552,-0.013620
5.032500,0.023591,-0.013600
5.035000,-0.007278,-0.013579
5.037500,-0.008085,-0.013557
5.040000,0.002108,-0.013534
5.042500,-0.002805,-0.013509
5.045000,0.002297,-0.013484
5.047500,0.000729,-0.013457
5.050000,-0.016659,-0.013429
5.052500,-0.011852,-0.013400
5.055000,0.028092,-0.013370
5.057500,0.030547,-0.013338
5.060000,0.007466,-0.013305
5.062500,0.009374,-0.013271
5.065000,-0.004395,-0.013235
5.067500,-0.018523,-0.013198
5.070000,-0.015007,-0.013159
5.072500,-0.001454,-0.013119
5.075000,-0.004870,-0.013078
5.077500,-0.026467,-0.013035
5.080000,-0.010794,-0.012990
5.082500,0.029338,-0.012944
5.085000,0.016296,-0.012896
5.087500,0.011844,-0.012847
5.090000,-0.000681,-0.012796
5.092500,-0.013916,-0.012744
5.095000,-0.013976,-0.012689
5.097500,0.005276,-0.012633
5.100000,-0.003714,-0.012576
5.102500,-0.017903,-0.012516
5.105000,-0.008986,-0.012455
5.107500,-0.001592,-0.012391
5.110000,0.012872,-0.012326
5.112500,0.029399,-0.012259
5.115000,0.013243,-0.012190
5.117500,-0.009030,-0.012119
5.120000,-0.010073,-0.012046
5.122500,-0.016555,-0.011971
5.125000,-0.002332,-0.011893
5.127500,0.007516,-0.011814
5.130000,-0.006721,-0.011732
5.132500,-0.013054,-0.011648
5.135000,0.003747,-0.011562
5.137500,0.031330,-0.011474
5.140000,0.004352,-0.011383
5.142500,-0.001591,-0.011290
5.145000,-0.017810,-0.011194
5.147500,-0.025734,-0.011096
5.150000,-0.010197,-0.010996
5.152500,-0.013670,-0.010893
5.155000,0.000277,-0.010787
5.157500,-0.018814,-0.010679
5.160000,-0.011769,-0.010568
5.162500,0.013185,-0.010454
5.165000,0.016551,-0.010337
5.167500,0.004492,-0.010218
5.170000,-0.009137,-0.010096
5.172500,-0.009940,-0.009971
5.175000,-0.029070,-0.009843
5.177500,-0.020701,-0.009711
5.180000,0.004170,-0.009577
5.182500,-0.010266,-0.009440
5.185000,-0.012779,-0.009300
5.187500,-0.004996,-0.009156
5.190000,0.030569,-0.009009
5.192500,0.008632,-0.008859
5.195000,0.003466,-0.008705
5.197500,0.001453,-0.008548
5.200000,-0.007330,-0.008388
5.202500,-0.008348,-0.008223
5.205000,-0.007426,-0.008056
5.207500,-0.007161,-0.007884
5.210000,-0.016742,-0.007709
5.212500,-0.014699,-0.007531
5.215000,0.001325,-0.007348
5.217500,0.017060,-0.007161
5.220000,0.017527,-0.006971
5.222500,-0.007099,-0.006776
5.225000,0.000969,-0.006578
5.227500,-0.018381,-0.006375
5.230000,-0.028260,-0.006168
5.232500,-0.002836,-0.005957
5.235000,-0.003557,-0.005742
5.237500,0.003794,-0.005522
5.240000,0.004475,-0.005297
5.242500,0.004305,-0.005068
5.245000,0.016898,-0.004835
5.247500,0.006759,-0.004597
5.250000,0.004978,-0.004354
5.252500,-0.014239,-0.004106
5.255000,-0.031548,-0.003854
5.257500,-0.025160,-0.003596
5.260000,0.015262,-0.003334
5.262500,-0.002663,-0.003066
5.265000,-0.013657,-0.002793
5.267500,0.004127,-0.002515
5.270000,0.009420,-0.002232
5.272500,0.014260,-0.001943
5.275000,0.000251,-0.001649
5.277500,-0.002367,-0.001349
5.280000,-0.006034,-0.001044
5.282500,-0.025798,-0.000733
5.285000,-0.011127,-0.000416
5.287500,0.012060,-0.000093
5.290000,0.001945,0.000235
5.292500,-0.002087,0.000570
5.295000,0.002954,0.000911
5.297500,0.030515,0.001258
5.300000,0.023114,0.001611
5.302500,0.008656,0.001971
5.305000,-0.013168,0.002337
5.307500,-0.010913,0.002710
5.310000,-0.031999,0.003089
5.312500,-0.010412,0.003475
5.315000,0.011417,0.003867
5.317500,-0.004194,0.004267
5.320000,-0.007114,0.004674
5.322500,0.010505,0.005087
5.325000,0.026464,0.005508
5.327500,0.019140,0.005936
5.330000,-0.001250,0.006372
5.332500,-0.010266,0.006814
5.335000,-0.011445,0.007265
5.337500,-0.026354,0.007723
5.340000,0.006200,0.008189
5.342500,0.000733,0.008662
5.345000,0.008146,0.009144
5.347500,-0.002397,0.009633
5.350000,0.012048,0.010131
5.352500,0.026364,0.010636
5.355000,-0.004410,0.011150
5.357500,-0.003411,0.011673
5.360000,-0.013600,0.012204
5.362500,-0.029405,0.012744
5.365000,-0.000633,0.013292
5.367500,0.003792,0.013849
5.370000,0.010937,0.014415
5.372500,0.015833,0.014990
5.375000,-0.006088,0.015575
5.377500,0.002897,0.016168
5.380000,0.018546,0.016771
5.382500,0.003339,0.017383
5.385000,-0.009747,0.018005
5.387500,-0.022914,0.018636
5.390000,-0.016457,0.019277
5.392500,-0.017968,0.019928
5.395000,0.007147,0.020590
5.397500,0.020720,0.021261
5.400000,0.007953,0.021942
5.402500,0.015315,0.022634
5.405000,0.023301,0.023336
5.407500,0.006685,0.024048
5.410000,-0.005066,0.024772
5.412500,-0.019317,0.025506
5.415000,-0.032658,0.026250
5.417500,-0.009439,0.027006
5.420000,0.012752,0.027773
5.422500,0.012414,0.028551
5.425000,0.013352,0.029341
5.427500,0.001183,0.030142
5.430000,-0.002045,0.030954
5.432500,0.009531,0.031778
5.435000,0.001035,0.032614
5.437500,0.008400,0.033462
5.440000,-0.021177,0.034321
5.442500,-0.013280,0.035193
5.445000,-0.021214,0.036077
5.447500,-0.000500,0.036973
5.450000,0.030181,0.037882
5.452500,0.006916,0.038804
5.455000,-0.004383,0.039738
5.457500,0.017598,0.040685
5.460000,0.014550,0.041645
5.462500,-0.001510,0.042617
5.465000,0.000585,0.043604
5.467500,-0.024225,0.044603
5.470000,-0.016928,0.045615
5.472500,-0.020626,0.046642
5.475000,0.016334,0.047681
5.477500,0.015174,0.048735
5.480000,-0.001051,0.049802
5.482500,-0.000950,0.050884
5.485000,0.011796,0.051979
5.487500,-0.009870,0.053089
5.490000,0.004239,0.054212
5.492500,-0.017062,0.055351
5.495000,-0.010399,0.056504
5.497500,-0.026861,0.057671
5.500000,-0.006613,0.058853
5.502500,0.018074,0.060050
5.505000,0.012022,0.061262
5.507500,0.008853,0.062490
5.510000,0.008545,0.063732
5.512500,0.005592,0.064990
5.515000,-0.012588,0.066263
5.517500,-0.016982,0.067551
5.520000,-0.012731,0.068856
5.522500,-0.012075,0.070176
5.525000,-0.016525,0.071512
5.527500,0.011401,0.072864
5.530000,0.027650,0.074231
5.532500,0.007040,0.075616
5.535000,0.003115,0.077016
5.537500,-0.003601,0.078433
5.540000,0.005971,0.079866
5.542500,-0.013482,0.081316
5.545000,0.001092,0.082783
5.547500,-0.007032,0.084266
5.550000,-0.027190,0.085766
5.552500,-0.003678,0.087283
5.555000,0.017998,0.088818
5.557500,0.023935,0.090369
5.560000,0.016709,0.091938
5.562500,0.009328,0.093524
5.565000,0.010866,0.095128
5.567500,0.003804,0.096749
5.570000,0.004937,0.098388
5.572500,-0.011704,0.100045
5.575000,-0.012703,0.101719
5.577500,-0.014379,0.103412
5.580000,-0.005291,0.105122
5.582500,0.027216,0.106851
5.585000,0.032800,0.108597
5.587500,0.012896,0.110362
5.590000,-0.000752,0.112146
5.592500,0.004689,0.113947
5.595000,-0.002016,0.115768
5.597500,0.004508,0.117606
5.600000,-0.013660,0.119464
5.602500,-0.012457,0.121340
5.605000,-0.004112,0.123235
5.607500,0.010306,0.125148
5.610000,0.036672,0.127081
5.612500,0.022383,0.129033
5.615000,0.002522,0.131003
5.617500,-0.009666,0.132993
5.620000,-0.013453,0.135002
5.622500,-0.000633,0.137030
5.625000,-0.009102,0.139077
5.627500,-0.005116,0.141144
5.630000,-0.006876,0.143230
5.632500,-0.002222,0.145336
5.635000,0.014323,0.147461
5.637500,0.033398,0.149605
5.640000,0.023394,0.151769
5.642500,-0.006703,0.153953
5.645000,-0.003999,0.156156
5.647500,-0.025484,0.158379
5.650000,-0.022610,0.160621
5.652500,-0.000686,0.162884
5.655000,0.002358,0.165166
5.657500,-0.008181,0.167468
5.660000,-0.001491,0.169789
5.662500,0.020531,0.172131
5.665000,0.022130,0.174492
5.667500,0.021503,0.176873
5.670000,0.012161,0.179274
5.672500,-0.000042,0.181695
5.675000,-0.022756,0.184136
5.677500,-0.019251,0.186597
5.680000,0.006606,0.189077
5.682500,0.007255,0.191577
5.685000,-0.012507,0.194098
5.687500,0.003407,0.196638
5.690000,0.030022,0.199198
5.692500,0.018830,0.201778
5.695000,0.013833,0.204377
5.697500,0.003899,0.206997
5.700000,-0.006710,0.209636
5.702500,-0.028134,0.212295
5.705000,-0.008904,0.214973
5.707500,-0.008999,0.217672
5.710000,-0.012980,0.220390
5.712500,-0.011898,0.223127
5.715000,0.002631,0.225884
5.717500,0.019938,0.228661
5.720000,0.015810,0.231457
5.722500,0.004017,0.234273
5.725000,-0.001357,0.237108
5.727500,-0.026795,0.239962
5.730000,-0.014442,0.242835
5.732500,0.004959,0.245728
5.735000,0.008295,0.248640
5.737500,0.003071,0.251570
5.740000,0.006021,0.254520
5.742500,0.026615,0.257489
5.745000,0.016334,0.260476
5.747500,0.007019,0.263482
5.750000,-0.006008,0.266507
5.752500,-0.002561,0.269550
5.755000,-0.021218,0.272611
5.757500,-0.012262,0.275691
5.760000,0.002124,0.278789
5.762500,0.008915,0.281905
5.765000,0.007313,0.285039
5.767500,-0.008950,0.288191
5.770000,0.012376,0.291361
5.772500,0.029317,0.294548
5.775000,0.001013,0.297753
5.777500,0.005379,0.300975
5.780000,-0.005480,0.304214
5.782500,-0.030556,0.307471
5.785000,-0.009261,0.310744
5.787500,0.017351,0.314034
5.790000,0.000024,0.317341
5.792500,-0.006717,0.320664
5.795000,-0.005164,0.324003
5.797500,0.007745,0.327359
5.800000,0.208238,0.330730
5.802500,0.139610,0.334117
5.805000,0.028934,0.337520
5.807500,-0.339032,0.340939
5.810000,-0.175391,0.344372
5.812500,0.105599,0.347821
5.815000,0.218197,0.351284
5.817500,0.092612,0.354762
5.820000,-0.055397,0.358255
5.822500,-0.012860,0.361762
5.825000,0.215412,0.365283
5.827500,0.079471,0.368818
5.830000,-0.071638,0.372366
5.832500,-0.012293,0.375928
5.835000,-0.264074,0.379503
5.837500,-0.331220,0.383091
5.840000,0.128423,0.386692
5.842500,0.029274,0.390305
5.845000,0.021674,0.393931
5.847500,-0.056663,0.397568
5.850000,0.194190,0.401217
5.852500,0.245726,0.404878
5.855000,0.095503,0.408550
5.857500,0.070469,0.412233
5.860000,-0.273784,0.415927
5.862500,-0.169557,0.419631
5.865000,-0.284741,0.423345
5.867500,0.270360,0.427069
5.870000,0.064102,0.430803
5.872500,0.054637,0.434546
5.875000,0.213734,0.438299
5.877500,0.106135,0.442060
5.880000,0.055415,0.445829
5.882500,0.013926,0.449607
5.885000,-0.025292,0.453393
5.887500,-0.291721,0.457186
5.890000,-0.351887,0.460987
5.892500,0.057078,0.464794
5.895000,0.209772,0.468608
5.897500,0.273336,0.472429
5.900000,0.067810,0.476255
5.902500,0.219527,0.480088
5.905000,0.280967,0.483925
5.907500,0.061280,0.487768
5.910000,0.058842,0.491615
5.912500,-0.259497,0.495467
5.915000,-0.332376,0.499323
5.917500,-0.342289,0.503182
5.920000,-0.076550,0.507045
5.922500,0.297038,0.510910
5.925000,0.094245,0.514779
5.927500,0.063138,0.518649
5.930000,0.089762,0.522522
5.932500,0.191771,0.526396
5.935000,0.036809,0.530271
5.937500,-0.081831,0.534147
5.940000,-0.114444,0.538024
5.942500,-0.452218,0.541901
5.945000,-0.128819,0.545777
5.947500,0.028668,0.549653
5.950000,0.383349,0.553527
5.952500,0.002149,0.557400
5.955000,-0.019899,0.561272
5.957500,0.113524,0.565141
5.960000,-0.091552,0.569007
5.962500,-0.052076,0.572871
5.965000,0.080807,0.576731
5.967500,-0.321446,0.580587
5.970000,-0.173922,0.584440
5.972500,-0.257163,0.588287
5.975000,0.217175,0.592130
5.977500,0.405482,0.595967
5.980000,0.194228,0.599799
5.982500,0.121715,0.603624
5.985000,0.037474,0.607443
5.987500,0.125497,0.611254
5.990000,-0.174345,0.615059
5.992500,-0.181701,0.618855
5.995000,-0.391623,0.622643
5.997500,-0.220315,0.626423
6.000000,-0.147295,0.630193
6.002500,0.241833,0.633954
6.005000,0.160165,0.637705
6.007500,0.027529,0.641446
6.010000,0.049278,0.645176
6.012500,0.059174,0.648894
6.015000,0.086006,0.652602
6.017500,-0.048495,0.656297
6.020000,-0.101516,0.659979
6.022500,-0.317987,0.663649
6.025000,-0.329237,0.667306
6.027500,0.049727,0.670948
6.030000,0.229808,0.674577
6.032500,0.098194,0.678191
6.035000,0.062691,0.681790
6.037500,-0.096761,0.685374
6.040000,0.092591,0.688941
6.042500,-0.153095,0.692493
6.045000,-0.203636,0.696028
6.047500,-0.004232,0.699545
6.050000,-0.414584,0.703045
6.052500,-0.218786,0.706528
6.055000,0.285653,0.709991
6.057500,0.342508,0.713436
6.060000,0.117735,0.716862
6.062500,0.081066,0.720268
6.065000,-0.066912,0.723654
6.067500,-0.058239,0.727020
6.070000,-0.202085,0.730364
6.072500,-0.090200,0.733687
6.075000,-0.145869,0.736989
6.077500,-0.262374,0.740268
6.080000,0.078946,0.743525
6.082500,0.240413,0.746759
6.085000,0.316607,0.749969
6.087500,0.114248,0.753156
6.090000,-0.077350,0.756318
6.092500,-0.160043,0.759456
6.095000,-0.214069,0.762569
6.097500,0.016718,0.765656
6.100000,-0.041696,0.768717
6.102500,-0.271686,0.771753
6.105000,-0.064617,0.774762
6.107500,-0.076204,0.777743
6.110000,0.453622,0.780698
6.112500,0.335204,0.783624
6.115000,0.023012,0.786523
6.117500,0.016298,0.789392
6.120000,-0.226898,0.792233
6.122500,-0.280121,0.795045
6.125000,0.063418,0.797827
6.127500,0.002542,0.800579
6.130000,-0.045385,0.803301
6.132500,-0.182793,0.805992
6.135000,0.042173,0.808651
6.137500,0.312349,0.811280
6.140000,0.064462,0.813876
6.142500,0.031972,0.816440
6.145000,-0.116308,0.818972
6.147500,-0.292998,0.821471
6.150000,-0.170397,0.823937
6.152500,-0.113074,0.826369
6.155000,-0.048010,0.828767
6.157500,-0.186345,0.831131
6.160000,0.102502,0.833461
6.162500,0.264707,0.835755
6.165000,0.240422,0.838015
6.167500,0.040608,0.840239
6.170000,-0.102924,0.842427
6.172500,-0.266669,0.844580
6.175000,-0.076028,0.846695
6.177500,-0.136308,0.848775
6.180000,0.042443,0.850817
6.182500,-0.035645,0.852822
6.185000,-0.141088,0.854790
6.187500,-0.060031,0.856719
6.190000,0.143834,0.858611
6.192500,0.287481,0.860465
6.195000,0.033470,0.862279
6.197500,-0.203924,0.864055
6.200000,-0.121808,0.865792
6.202500,-0.260136,0.867490
6.205000,-0.226160,0.869148
6.207500,0.167756,0.870766
6.210000,-0.062112,0.872345
6.212500,-0.167510,0.873883
6.215000,0.162340,0.875380
6.217500,0.258871,0.876837
6.220000,0.319172,0.878253
6.222500,0.054954,0.879628
6.225000,-0.028156,0.880962
6.227500,-0.084603,0.882254
6.230000,-0.150185,0.883505
6.232500,-0.080241,0.884714
6.235000,0.110797,0.885881
6.237500,0.022829,0.887005
6.240000,0.037053,0.888088
6.242500,0.158006,0.889128
6.245000,0.279156,0.890125
6.247500,0.271067,0.891080
6.250000,0.098532,0.891991
6.252500,-0.173807,0.892860
6.255000,-0.433438,0.893685
6.257500,-0.299247,0.894468
6.260000,-0.042339,0.895207
6.262500,0.150660,0.895902
6.265000,0.044030,0.896554
6.267500,0.139602,0.897162
6.270000,0.127993,0.897726
6.272500,0.340804,0.898247
6.275000,-0.012309,0.898724
6.277500,-0.128781,0.899156
6.280000,-0.165859,0.899545
6.282500,-0.409299,0.899890
6.285000,-0.278085,0.900190
6.287500,-0.041736,0.900447
6.290000,0.149641,0.900659
6.292500,0.089051,0.900827
6.295000,0.203150,0.900950
6.297500,0.387392,0.901030
6.300000,0.054423,0.901065
6.302500,0.038164,0.901055
6.305000,-0.020168,0.901002
6.307500,-0.141641,0.900904
6.310000,-0.332809,0.900762
6.312500,0.102739,0.900576
6.315000,0.093668,0.900345
6.317500,-0.033765,0.900070
6.320000,-0.084286,0.899751
6.322500,-0.008750,0.899389
6.325000,0.231389,0.898982
6.327500,0.059872,0.898531
6.330000,-0.124088,0.898036
6.332500,-0.214850,0.897497
6.335000,-0.191289,0.896915
6.337500,-0.137251,0.896289
6.340000,-0.042815,0.895619
6.342500,0.259821,0.894906
6.345000,0.141677,0.894149
6.347500,0.112902,0.893350
6.350000,0.300050,0.892507
6.352500,0.149841,0.891621
6.355000,0.206058,0.890692
6.357500,-0.007795,0.889721
6.360000,-0.235645,0.888706
6.362500,-0.390778,0.887650
6.365000,-0.187164,0.886551
6.367500,0.012313,0.885410
6.370000,0.148670,0.884227
6.372500,0.200192,0.883002
6.375000,0.069356,0.881735
6.377500,0.082308,0.880427
6.380000,-0.013743,0.879078
6.382500,-0.066656,0.877688
6.385000,0.010135,0.876257
6.387500,-0.264408,0.874785
6.390000,-0.390326,0.873273
6.392500,-0.116697,0.871720
6.395000,0.157526,0.870127
6.397500,0.164966,0.868495
6.400000,-0.007842,0.866823
6.402500,0.192533,0.865112
6.405000,0.229314,0.863362
6.407500,0.083336,0.861572
6.410000,-0.147762,0.859745
6.412500,-0.190433,0.857879
6.415000,-0.187439,0.855975
6.417500,-0.220570,0.854033
6.420000,-0.106563,0.852053
6.422500,0.177919,0.850037
6.425000,0.046637,0.847983
6.427500,-0.055194,0.845893
6.430000,-0.046086,0.843767
6.432500,0.155525,0.841604
6.435000,-0.041604,0.839406
6.437500,-0.141445,0.837172
6.440000,-0.299040,0.834903
6.442500,-0.447014,0.832599
6.445000,-0.243528,0.830260
6.447500,0.244635,0.827888
6.450000,0.258965,0.825481
6.452500,0.081033,0.823041
6.455000,0.151559,0.820568
6.457500,0.142945,0.818062
6.460000,0.140725,0.815523
6.462500,0.041175,0.812953
6.465000,0.062122,0.810350
6.467500,-0.288010,0.807716
6.470000,-0.339536,0.805051
6.472500,-0.030170,0.802355
6.475000,0.083754,0.799628
6.477500,0.331607,0.796872
6.480000,0.080387,0.794086
6.482500,-0.063562,0.791271
6.485000,-0.046364,0.788426
6.487500,0.018345,0.785554
6.490000,-0.058831,0.782653
6.492500,-0.222346,0.779724
6.495000,-0.328022,0.776768
6.497500,-0.254062,0.773785
6.500000,0.037124,0.770775
6.502500,0.218700,0.767739
6.505000,0.265287,0.764677
6.507500,0.224749,0.761590
6.510000,-0.034800,0.758478
6.512500,-0.015546,0.755341
6.515000,-0.130993,0.752180
6.517500,0.006400,0.748995
6.520000,0.047752,0.745787
6.522500,-0.219050,0.742556
6.525000,-0.279919,0.739302
6.527500,0.100534,0.736026
6.530000,0.191240,0.732728
6.532500,0.246486,0.729409
6.535000,-0.004354,0.726069
6.537500,-0.094954,0.722709
6.540000,-0.107211,0.719328
6.542500,-0.085901,0.715928
6.545000,0.045426,0.712509
6.547500,0.003455,0.709071
6.550000,-0.232737,0.705614
6.552500,-0.192892,0.702139
6.555000,0.268248,0.698647
6.557500,0.227627,0.695138
6.560000,0.238020,0.691612
6.562500,0.070519,0.688070
6.565000,-0.095659,0.684511
6.567500,-0.202942,0.680938
6.570000,0.005310,0.677349
6.572500,0.076480,0.673746
6.575000,-0.090040,0.670129
6.577500,-0.275048,0.666498
6.580000,-0.110319,0.662854
6.582500,0.229790,0.659196
6.585000,0.238371,0.655527
6.587500,0.097811,0.651845
6.590000,-0.123772,0.648152
6.592500,-0.065005,0.644448
6.595000,-0.106730,0.640732
6.597500,-0.018445,0.637007
6.600000,-0.084405,0.633271
6.602500,-0.080768,0.629526
6.605000,-0.070125,0.625772
6.607500,-0.031973,0.622010
6.610000,0.184065,0.618239
6.612500,0.226881,0.614460
6.615000,-0.059232,0.610674
6.617500,0.007559,0.606880
6.620000,-0.205073,0.603080
6.622500,-0.090265,0.599274
6.625000,-0.086276,0.595463
6.627500,-0.033325,0.591645
6.630000,-0.184584,0.587823
6.632500,-0.248364,0.583996
6.635000,0.210390,0.580165
6.637500,0.275068,0.576331
6.640000,0.131328,0.572493
6.642500,0.126529,0.568652
6.645000,0.000648,0.564808
6.647500,-0.232464,0.560962
6.650000,-0.056360,0.557114
6.652500,-0.173645,0.553265
6.655000,-0.174217,0.549415
6.657500,-0.047515,0.545564
6.660000,-0.095103,0.541713
6.662500,0.286801,0.537862
6.665000,0.148238,0.534011
6.667500,0.234676,0.530162
6.670000,-0.127217,0.526313
6.672500,-0.043777,0.522466
6.675000,-0.186470,0.518621
6.677500,-0.014198,0.514778
6.680000,0.128423,0.510938
6.682500,-0.157051,0.507101
6.685000,-0.001720,0.503267
6.687500,0.024497,0.499436
6.690000,0.174988,0.495610
6.692500,0.118662,0.491789
6.695000,0.146801,0.487971
6.697500,-0.016408,0.484159
6.700000,-0.330696,0.480353
6.702500,-0.101607,0.476552
6.705000,-0.107792,0.472757
6.707500,0.023863,0.468968
6.710000,-0.115153,0.465186
6.712500,-0.086855,0.461411
6.715000,0.028719,0.457644
6.717500,0.139527,0.453884
6.720000,0.180741,0.450132
6.722500,0.090760,0.446388
6.725000,0.022675,0.442652
6.727500,-0.276902,0.438926
6.730000,-0.330248,0.435208
6.732500,-0.149825,0.431500
6.735000,0.044616,0.427801
6.737500,-0.045803,0.424113
6.740000,-0.059824,0.420434
6.742500,0.106302,0.416766
6.745000,0.205492,0.413109
6.747500,0.200295,0.409463
6.750000,0.062484,0.405828
6.752500,-0.140289,0.402205
6.755000,-0.430393,0.398593
6.757500,-0.110730,0.394994
6.760000,0.159064,0.391406
6.762500,-0.030130,0.387832
6.765000,0.047843,0.384270
6.767500,-0.060004,0.380720
6.770000,0.240178,0.377185
6.772500,0.144073,0.373662
6.775000,0.232774,0.370153
6.777500,-0.011616,0.366659
6.780000,-0.249673,0.363178
6.782500,-0.369311,0.359711
6.785000,-0.169318,0.356259
6.787500,0.082532,0.352822
6.790000,0.152971,0.349400
6.792500,0.118594,0.345992
6.795000,0.019371,0.342600
6.797500,0.329373,0.339224
6.800000,0.272688,0.335863
6.802500,0.154843,0.332518
6.805000,0.010997,0.329189
6.807500,-0.292929,0.325876
6.810000,-0.423431,0.322579
6.812500,-0.022144,0.319299
6.815000,0.162697,0.316036
6.817500,0.025720,0.312789
6.820000,0.138363,0.309559
6.822500,0.151883,0.306347
6.825000,0.365951,0.303152
6.827500,0.033960,0.299974
6.830000,-0.110453,0.296813
6.832500,-0.215117,0.293670
6.835000,-0.200444,0.290546
6.837500,-0.194294,0.287438
6.840000,0.174613,0.284349
6.842500,0.096786,0.281279
6.845000,0.063006,0.278226
6.847500,0.177516,0.275192
6.850000,0.303000,0.272176
6.852500,0.219909,0.269179
6.855000,0.175390,0.266200
6.857500,-0.200079,0.263240
6.860000,-0.325443,0.260299
6.862500,-0.199261,0.257377
6.865000,-0.103864,0.254474
6.867500,0.260458,0.251590
6.870000,0.308742,0.248725
6.872500,0.075401,0.245880
6.875000,0.188901,0.243054
6.877500,0.218290,0.240247
6.880000,0.009689,0.237459
6.882500,-0.116084,0.234692
6.885000,0.023264,0.231943
6.887500,-0.254920,0.229214
6.890000,-0.330256,0.226505
6.892500,-0.219268,0.223816
6.895000,0.105189,0.221146
6.897500,0.072240,0.218496
6.900000,0.064237,0.215866
6.902500,-0.004241,0.213256
6.905000,0.000600,0.210666
6.907500,-0.002887,0.208095
6.910000,-0.011322,0.205545
6.912500,0.000304,0.203014
6.915000,-0.027762,0.200503
6.917500,-0.012369,0.198013
6.920000,-0.008399,0.195542
6.922500,0.030590,0.193091
6.925000,0.005079,0.190661
6.927500,-0.008528,0.188250
6.930000,0.014122,0.185859
6.932500,-0.004905,0.183489
6.935000,0.002733,0.181138
6.937500,-0.010723,0.178807
6.940000,-0.003358,0.176496
6.942500,-0.026302,0.174205
6.945000,-0.026283,0.171935
6.947500,0.015342,0.169684
6.950000,0.033085,0.167452
6.952500,0.003899,0.165241
6.955000,-0.002658,0.163050
6.957500,0.014216,0.160878
6.960000,0.000152,0.158727
6.962500,0.003050,0.156595
6.965000,-0.009649,0.154482
6.967500,-0.025476,0.152390
6.970000,-0.033815,0.150317
6.972500,0.003419,0.148263
6.975000,0.006416,0.146229
6.977500,0.016309,0.144215
6.980000,0.005087,0.142220
6.982500,0.010501,0.140245
6.985000,0.009662,0.138289
6.987500,0.005560,0.136352
6.990000,-0.002356,0.134434
6.992500,-0.017845,0.132536
6.995000,-0.017250,0.130656
6.997500,-0.023613,0.128796
7.000000,-0.009593,0.126955
7.002500,0.030352,0.125133
7.005000,0.016066,0.123329
7.007500,0.008922,0.121545
7.010000,-0.001042,0.119779
7.012500,0.005272,0.118031
7.015000,-0.005861,0.116303
7.017500,0.002233,0.114592
7.020000,-0.005351,0.112900
7.022500,-0.030561,0.111227
7.025000,-0.021972,0.109572
7.027500,0.009060,0.107935
7.030000,0.031802,0.106316
7.032500,0.008170,0.104715
7.035000,-0.003577,0.103132
7.037500,0.003549,0.101567
7.040000,-0.012281,0.100020
7.042500,-0.016489,0.098490
7.045000,-0.014620,0.096978
7.047500,-0.003130,0.095483
7.050000,-0.024363,0.094006
7.052500,-0.014074,0.092546
7.055000,0.011348,0.091104
7.057500,0.016608,0.089678
7.060000,0.008985,0.088270
7.062500,0.011029,0.086878
7.065000,-0.000526,0.085503
7.067500,-0.004614,0.084145
7.070000,-0.019305,0.082804
7.072500,0.004280,0.081479
7.075000,-0.018240,0.080171
7.077500,-0.008924,0.078879
7.080000,-0.010590,0.077603
7.082500,0.011813,0.076343
7.085000,0.015904,0.075100
7.087500,-0.001123,0.073872
7.090000,0.003592,0.072660
7.092500,0.004935,0.071464
7.095000,-0.000768,0.070284
7.097500,-0.009284,0.069119
7.100000,-0.000457,0.067969
7.102500,-0.005577,0.066835
7.105000,-0.026084,0.065716
7.107500,0.012280,0.064612
7.110000,0.017967,0.063523
7.112500,0.028298,0.062449
7.115000,0.005692,0.061390
7.117500,0.008876,0.060345
7.120000,0.000099,0.059315
7.122500,-0.010699,0.058300
7.125000,-0.001789,0.057299
7.127500,0.000972,0.056312
7.130000,-0.016251,0.055339
7.132500,-0.000737,0.054380
7.135000,0.001228,0.053435
7.137500,0.023618,0.052505
7.140000,0.016271,0.051587
7.142500,0.010768,0.050684
7.145000,0.003979,0.049794
7.147500,-0.004965,0.048917
7.150000,-0.023081,0.048054
7.152500,0.002757,0.047203
7.155000,0.007806,0.046366
7.157500,-0.000932,0.045542
7.160000,-0.007463,0.044731
7.162500,0.011734,0.043932
7.165000,0.017449,0.043147
7.167500,0.015812,0.042373
7.170000,-0.006285,0.041613
7.172500,-0.011271,0.040864
7.175000,-0.014264,0.040128
7.177500,-0.021964,0.039404
7.180000,0.013235,0.038692
7.182500,-0.004237,0.037992
7.185000,-0.023331,0.037304
7.187500,-0.003554,0.036627
7.190000,0.023377,0.035963
7.192500,0.031742,0.035309
7.195000,-0.002567,0.034668
7.197500,-0.013410,0.034037
7.200000,-0.026424,0.033418
7.202500,-0.020333,0.032810
7.205000,-0.010216,0.032213
7.207500,-0.007600,0.031627
7.210000,-0.011777,0.031052
7.212500,0.004020,0.030487
7.215000,0.002274,0.029933
7.217500,0.023412,0.029390
7.220000,0.020118,0.028858
7.222500,0.006125,0.028335
7.225000,0.005090,0.027823
7.227500,-0.027730,0.027322
7.230000,-0.024656,0.026830
7.232500,-0.014149,0.026348
7.235000,0.002819,0.025877
7.237500,0.004976,0.025415
7.240000,-0.008874,0.024963
7.242500,0.016727,0.024520
7.245000,0.031115,0.024088
7.247500,0.016142,0.023664
7.250000,0.010395,0.023250
7.252500,-0.001144,0.022846
7.255000,-0.013766,0.022451
7.257500,-0.025489,0.022065
7.260000,-0.007322,0.021688
7.262500,0.002314,0.021320
7.265000,-0.005390,0.020960
7.267500,-0.006525,0.020610
7.270000,0.020066,0.020269
7.272500,0.028529,0.019936
7.275000,0.001796,0.019612
7.277500,-0.002984,0.019297
7.280000,-0.024653,0.018990
7.282500,-0.027570,0.018691
7.285000,0.002174,0.018401
7.287500,-0.001220,0.018119
7.290000,0.012636,0.017845
7.292500,-0.001952,0.017579
7.295000,0.011071,0.017321
7.297500,0.013259,0.017072
7.300000,0.010046,0.016830
7.302500,-0.000041,0.016596
7.305000,-0.010531,0.016370
7.307500,-0.012834,0.016151
7.310000,-0.034277,0.015941
7.312500,-0.000570,0.015738
7.315000,0.019944,0.015542
7.317500,-0.008391,0.015354
7.320000,-0.007808,0.015173
7.322500,-0.000152,0.015000
7.325000,0.010994,0.014834
7.327500,0.021628,0.014675
7.330000,-0.002614,0.014523
7.332500,-0.009254,0.014379
7.335000,-0.024090,0.014242
7.337500,-0.015285,0.014111
7.340000,0.004931,0.013988
7.342500,0.013685,0.013872
7.345000,0.006721,0.013762
7.347500,0.000108,0.013660
7.350000,0.022012,0.013564
7.352500,0.002877,0.013475
7.355000,0.009818,0.013392
7.357500,-0.003028,0.013317
7.360000,-0.013170,0.013248
7.362500,-0.032258,0.013185
7.365000,-0.001756,0.013129
7.367500,0.014578,0.013079
7.370000,0.013532,0.013036
7.372500,-0.005968,0.013000
7.375000,0.005208,0.012969
7.377500,0.010915,0.012946
7.380000,0.018720,0.012928
7.382500,0.003417,0.012917
7.385000,-0.018632,0.012911
7.387500,-0.019553,0.012912
7.390000,-0.034986,0.012920
7.392500,0.002278,0.012933
7.395000,0.019702,0.012953
7.397500,0.015516,0.012978
7.400000,0.008705,0.013010
7.402500,0.005151,0.013048
7.405000,0.004029,0.013091
7.407500,0.000724,0.013141
7.410000,-0.012601,0.013197
7.412500,-0.020250,0.013258
7.415000,-0.020695,0.013326
7.417500,-0.019296,0.013399
7.420000,-0.000808,0.013478
7.422500,0.012129,0.013563
7.425000,0.007063,0.013654
7.427500,0.009106,0.013751
7.430000,0.018665,0.013854
7.432500,-0.001450,0.013962
7.435000,-0.003570,0.014076
7.437500,-0.003608,0.014196
7.440000,-0.020814,0.014321
7.442500,-0.014017,0.014453
7.445000,-0.023545,0.014590
7.447500,0.005426,0.014733
7.450000,0.028877,0.014881
7.452500,0.018518,0.015035
7.455000,0.014614,0.015195
7.457500,0.013330,0.015360
7.460000,0.013243,0.015532
7.462500,0.005252,0.015709
7.465000,-0.003651,0.015891
7.467500,-0.012092,0.016079
7.470000,-0.032632,0.016273
7.472500,-0.015276,0.016473
7.475000,0.012457,0.016678
7.477500,0.009921,0.016889
7.480000,-0.003989,0.017105
7.482500,0.001339,0.017327
7.485000,-0.003118,0.017555
7.487500,-0.003274,0.017789
7.490000,-0.006730,0.018028
7.492500,-0.015543,0.018273
7.495000,-0.006866,0.018523
7.497500,-0.019715,0.018779
7.500000,0.005172,0.019041
7.502500,0.023461,0.019309
7.505000,0.022402,0.019582
7.507500,0.006329,0.019861
7.510000,-0.001210,0.020146
7.512500,-0.001845,0.020437
7.515000,-0.008051,0.020733
7.517500,-0.006139,0.021035
7.520000,-0.002268,0.021343
7.522500,-0.031515,0.021656
7.525000,-0.024030,0.021976
7.527500,-0.002988,0.022301
7.530000,0.030241,0.022632
7.532500,0.020094,0.022969
7.535000,-0.004919,0.023312
7.537500,-0.004508,0.023661
7.540000,-0.003024,0.024016
7.542500,-0.012906,0.024377
7.545000,0.000167,0.024743
7.547500,-0.018955,0.025116
7.550000,-0.013710,0.025495
7.552500,0.002674,0.025879
7.555000,0.010265,0.026270
7.557500,0.019686,0.026667
7.560000,0.001986,0.027070
7.562500,0.015462,0.027479
7.565000,-0.006556,0.027894
7.567500,0.001556,0.028315
7.570000,0.000707,0.028743
7.572500,-0.003238,0.029176
7.575000,-0.023590,0.029617
7.577500,-0.014787,0.030063
7.580000,-0.005452,0.030516
7.582500,0.016106,0.030975
7.585000,0.033650,0.031440
7.587500,-0.000043,0.031912
7.590000,0.008907,0.032390
7.592500,-0.015457,0.032875
7.595000,-0.023306,0.033366
7.597500,-0.016130,0.033864
7.600000,-0.012858,0.034368
7.602500,-0.011583,0.034879
7.605000,-0.009777,0.035397
7.607500,0.018218,0.035921
7.610000,0.033159,0.036452
7.612500,0.032593,0.036990
7.615000,-0.003725,0.037535
7.617500,0.008888,0.038086
7.620000,-0.017934,0.038644
7.622500,-0.019786,0.039210
7.625000,0.006143,0.039782
7.627500,-0.016067,0.040361
7.630000,-0.011112,0.040947
7.632500,-0.005330,0.041540
7.635000,0.003385,0.042141
7.637500,0.020588,0.042748
7.640000,0.011588,0.043363
7.642500,-0.003490,0.043985
7.645000,-0.012706,0.044614
7.647500,-0.013130,0.045251
7.650000,-0.004047,0.045895
7.652500,0.002547,0.046546
7.655000,-0.012236,0.047205
7.657500,-0.010156,0.047871
7.660000,-0.001698,0.048545
7.662500,0.018629,0.049226
7.665000,0.015896,0.049915
7.667500,0.016425,0.050612
7.670000,-0.002826,0.051316
7.672500,-0.009595,0.052028
7.675000,-0.006112,0.052748
7.677500,-0.011809,0.053476
7.680000,0.009364,0.054212
7.682500,-0.010498,0.054956
7.685000,-0.005485,0.055708
7.687500,-0.008529,0.056467
7.690000,0.031837,0.057235
7.692500,0.008353,0.058011
7.695000,0.012509,0.058796
7.697500,-0.010665,0.059588
7.700000,-0.007957,0.060389
7.702500,-0.016805,0.061198
7.705000,-0.002335,0.062016
7.707500,0.004932,0.062842
7.710000,-0.015973,0.063677
7.712500,-0.002479,0.064520
7.715000,0.002699,0.065372
7.717500,0.018890,0.066232
7.720000,0.012832,0.067101
7.722500,0.012019,0.067979
7.725000,-0.009039,0.068866
7.727500,-0.026592,0.069761
7.730000,-0.018733,0.070666
7.732500,-0.007655,0.071579
7.735000,-0.004128,0.072502
7.737500,-0.002165,0.073433
7.740000,0.006661,0.074374
7.742500,0.016411,0.075324
7.745000,0.015756,0.076283
7.747500,0.015119,0.077251
7.750000,-0.012151,0.078229
7.752500,-0.008000,0.079216
7.755000,-0.024121,0.080213
7.757500,-0.021598,0.081219
7.760000,0.000473,0.082234
7.762500,0.004713,0.083259
7.765000,0.006151,0.084294
7.767500,-0.006039,0.085339
7.770000,0.013512,0.086393
7.772500,0.022686,0.087457
7.775000,0.002664,0.088531
7.777500,0.008527,0.089615
7.780000,-0.008242,0.090709
7.782500,-0.033361,0.091813
7.785000,0.000078,0.092927
7.787500,0.008432,0.094051
7.790000,0.009489,0.095186
7.792500,0.008201,0.096330
7.795000,0.001507,0.097485
7.797500,0.016382,0.098650
7.800000,0.007868,0.099826
7.802500,0.011491,0.101012
7.805000,-0.004375,0.102209
7.807500,-0.030838,0.103416
7.810000,-0.026290,0.104633
7.812500,-0.001342,0.105862
7.815000,-0.000525,0.107101
7.817500,-0.005685,0.108351
7.820000,-0.009985,0.109611
7.822500,-0.000723,0.110883
7.825000,0.016630,0.112165
7.827500,0.016816,0.113459
7.830000,-0.012452,0.114763
7.832500,-0.020190,0.116079
7.835000,-0.036865,0.117405
7.837500,-0.018327,0.118743
7.840000,-0.003031,0.120092
7.842500,0.001993,0.121452
7.845000,-0.005674,0.122824
7.847500,-0.007299,0.124207
7.850000,0.014559,0.125601
7.852500,0.026814,0.127007
7.855000,0.008322,0.128424
7.857500,-0.006924,0.129853
7.860000,-0.004174,0.131293
7.862500,-0.022950,0.132745
7.865000,-0.020400,0.134209
7.867500,0.006144,0.135684
7.870000,0.021862,0.137172
7.872500,-0.006588,0.138671
7.875000,0.008000,0.140182
7.877500,0.005116,0.141704
7.880000,0.008223,0.143239
7.882500,-0.010235,0.144786
7.885000,0.003622,0.146345
7.887500,-0.030381,0.147915
7.890000,-0.027646,0.149498
7.892500,0.006560,0.151094
7.895000,0.017688,0.152701
7.897500,0.003508,0.154321
7.900000,0.002178,0.155952
7.902500,0.005072,0.157597
7.905000,0.008149,0.159253
7.907500,0.015806,0.160922
7.910000,0.000510,0.162603
7.912500,-0.004475,0.164297
7.915000,-0.017467,0.166004
7.917500,-0.032545,0.167723
7.920000,0.012663,0.169454
7.922500,0.016053,0.171198
7.925000,0.017629,0.172955
7.927500,0.003871,0.174724
7.930000,0.011510,0.176506
7.932500,-0.003385,0.178301
7.935000,0.009761,0.180109
7.937500,-0.010981,0.181929
7.940000,-0.007686,0.183762
7.942500,-0.035171,0.185608
7.945000,-0.024511,0.187467
7.947500,0.017893,0.189339
7.950000,0.013417,0.191224
7.952500,0.003876,0.193122
7.955000,0.000760,0.195032
7.957500,0.008792,0.196956
7.960000,0.002093,0.198893
7.962500,-0.014040,0.200843
7.965000,-0.005409,0.202806
7.967500,-0.013665,0.204782
7.970000,-0.013181,0.206771
7.972500,-0.018342,0.208773
7.975000,0.023693,0.210788
7.977500,0.027538,0.212817
7.980000,0.005756,0.214859
7.982500,0.002080,0.216914
7.985000,-0.005715,0.218982
7.987500,0.009439,0.221063
7.990000,-0.006568,0.223158
7.992500,0.005869,0.225266
7.995000,-0.018192,0.227387
7.997500,-0.032699,0.229521
8.000000,-0.003972,0.231669
8.002500,0.031975,0.233830
8.005000,0.025169,0.236005
8.007500,0.017113,0.238192
8.010000,-0.006337,0.240393
8.012500,0.005537,0.242607
8.015000,-0.009602,0.244835
8.017500,-0.015148,0.247076
8.020000,0.001240,0.249330
8.022500,-0.031339,0.251597
8.025000,-0.025325,0.253878
8.027500,0.008014,0.256172
8.030000,0.018362,0.258480
8.032500,0.021479,0.260801
8.035000,0.016562,0.263135
8.037500,-0.000453,0.265482
8.040000,-0.000508,0.267843
8.042500,0.004988,0.270217
8.045000,-0.009101,0.272604
8.047500,-0.004852,0.275004
8.050000,-0.023960,0.277418
8.052500,0.000729,0.279845
8.055000,0.021003,0.282285
8.057500,0.019811,0.284738
8.060000,0.003775,0.287204
8.062500,-0.000874,0.289684
8.065000,0.009533,0.292177
8.067500,-0.020464,0.294682
8.070000,-0.011864,0.297201
8.072500,-0.001947,0.299733
8.075000,0.000422,0.302278
8.077500,-0.009389,0.304836
8.080000,-0.011731,0.307407
8.082500,0.014202,0.309991
8.085000,0.032250,0.312588
8.087500,0.001390,0.315198
8.090000,0.008910,0.317821
8.092500,-0.018100,0.320456
8.095000,0.000566,0.323104
8.097500,-0.000467,0.325766
8.100000,-0.022149,0.328439
8.102500,-0.209077,0.331126
8.105000,-0.223913,0.333825
8.107500,0.182059,0.336536
8.110000,0.443957,0.339261
8.112500,0.146824,0.341997
8.115000,-0.076089,0.344747
8.117500,0.035561,0.347508
8.120000,-0.261651,0.350282
8.122500,-0.221247,0.353068
8.125000,0.026852,0.355867
8.127500,0.019551,0.358678
8.130000,-0.122695,0.361500
8.132500,-0.199361,0.364335
8.135000,0.248902,0.367182
8.137500,0.169769,0.370041
8.140000,0.189391,0.372912
8.142500,-0.094804,0.375795
8.145000,-0.184300,0.378690
8.147500,-0.193483,0.381596
8.150000,-0.266338,0.384514
8.152500,-0.072399,0.387443
8.155000,0.057655,0.390384
8.157500,-0.171458,0.393337
8.160000,-0.009526,0.396301
8.162500,0.164058,0.399276
8.165000,0.312656,0.402262
8.167500,0.098422,0.405260
8.170000,0.014714,0.408269
8.172500,-0.141073,0.411288
8.175000,-0.212050,0.414319
8.177500,-0.102620,0.417360
8.180000,-0.114548,0.420412
8.182500,-0.189112,0.423475
8.185000,-0.163905,0.426549
8.187500,-0.058082,0.429632
8.190000,0.201609,0.432727
8.192500,0.284819,0.435831
8.195000,0.136670,0.438946
8.197500,0.040463,0.442071
8.200000,-0.092781,0.445206
8.202500,-0.302432,0.448351
8.205000,-0.126774,0.451505
8.207500,0.139785,0.454670
8.210000,0.028445,0.457844
8.212500,-0.143078,0.461027
8.215000,0.124237,0.464220
8.217500,0.326304,0.467423
8.220000,0.364346,0.470634
8.222500,0.096444,0.473855
8.225000,-0.074300,0.477084
8.227500,-0.355216,0.480323
8.230000,-0.345111,0.483570
8.232500,0.094442,0.486826
8.235000,-0.026005,0.490090
8.237500,-0.179488,0.493363
8.240000,-0.093473,0.496644
8.242500,0.342091,0.499933
8.245000,0.421973,0.503230
8.247500,0.115846,0.506535
8.250000,-0.097934,0.509848
8.252500,-0.232939,0.513168
8.255000,-0.224434,0.516497
8.257500,-0.133726,0.519832
8.260000,0.158958,0.523175
8.262500,0.063088,0.526525
8.265000,-0.160547,0.529882
8.267500,0.097088,0.533245
8.270000,0.377064,0.536616
8.272500,0.374262,0.539993
8.275000,0.193363,0.543376
8.277500,0.054828,0.546766
8.280000,-0.243694,0.550162
8.282500,-0.327164,0.553564
8.285000,-0.275541,0.556972
8.287500,0.018638,0.560386
8.290000,0.085996,0.563805
8.292500,-0.147605,0.567230
8.295000,0.065098,0.570660
8.297500,0.248734,0.574095
8.300000,0.235504,0.577535
8.302500,-0.051797,0.580979
8.305000,-0.119692,0.584429
8.307500,-0.177019,0.587883
8.310000,-0.268161,0.591341
8.312500,0.034053,0.594804
8.315000,0.046784,0.598270
8.317500,0.105137,0.601741
8.320000,-0.158765,0.605215
8.322500,0.163642,0.608692
8.325000,0.226751,0.612173
8.327500,0.111328,0.615657
8.330000,0.088931,0.619145
8.332500,-0.093042,0.622635
8.335000,-0.155835,0.626127
8.337500,-0.243658,0.629623
8.340000,-0.076918,0.633120
8.342500,0.108802,0.636620
8.345000,-0.074149,0.640121
8.347500,0.183218,0.643625
8.350000,0.140021,0.647130
8.352500,0.217540,0.650637
8.355000,-0.079488,0.654144
8.357500,-0.035297,0.657653
8.360000,-0.074706,0.661163
8.362500,-0.383056,0.664674
8.365000,-0.281337,0.668185
8.367500,0.193732,0.671696
8.370000,0.309698,0.675208
8.372500,0.060117,0.678719
8.375000,-0.083697,0.682230
8.377500,0.293777,0.685741
8.380000,0.011636,0.689252
8.382500,-0.029505,0.692761
8.385000,0.032765,0.696269
8.387500,-0.119325,0.699777
8.390000,-0.255457,0.703283
8.392500,-0.109967,0.706787
8.395000,0.227542,0.710290
8.397500,0.194646,0.713790
8.400000,0.199975,0.717289
8.402500,0.018501,0.720785
8.405000,0.104555,0.724278
8.407500,-0.007562,0.727769
8.410000,0.090066,0.731257
8.412500,-0.100768,0.734742
8.415000,-0.310852,0.738223
8.417500,-0.351452,0.741701
8.420000,0.185187,0.745175
8.422500,0.206969,0.748644
8.425000,0.187311,0.752110
8.427500,-0.023340,0.755572
8.430000,0.253575,0.759028
8.432500,0.134382,0.762480
8.435000,-0.123432,0.765927
8.437500,-0.167927,0.769369
8.440000,-0.246068,0.772805
8.442500,-0.296973,0.776236
8.445000,-0.174643,0.779661
8.447500,0.186488,0.783080
8.450000,0.163808,0.786492
8.452500,0.075483,0.789898
8.455000,0.178070,0.793297
8.457500,0.243496,0.796690
8.460000,0.135056,0.800075
8.462500,-0.127197,0.803453
8.465000,-0.074931,0.806824
8.467500,-0.053565,0.810186
8.470000,-0.418883,0.813541
8.472500,0.044474,0.816888
8.475000,0.097101,0.820226
8.477500,0.292037,0.823555
8.480000,-0.013955,0.826876
8.482500,-0.060115,0.830188
8.485000,-0.068993,0.833490
8.487500,-0.048271,0.836783
8.490000,-0.182712,0.840066
8.492500,0.009863,0.843340
8.495000,-0.259530,0.846603
8.497500,-0.336004,0.849856
8.500000,0.045956,0.853099
8.502500,0.116172,0.856330
8.505000,0.321819,0.859551
8.507500,0.029394,0.862760
8.510000,0.025006,0.865959
8.512500,0.128353,0.869145
8.515000,-0.196997,0.872320
8.517500,-0.077244,0.875483
8.520000,-0.017578,0.878633
8.522500,-0.121575,0.881771
8.525000,-0.354332,0.884896
8.527500,0.048734,0.888009
8.530000,0.287603,0.891108
8.532500,0.303092,0.894194
8.535000,-0.006160,0.897266
8.537500,-0.007793,0.900325
8.540000,-0.152816,0.903370
8.542500,-0.175414,0.906400
8.545000,-0.209917,0.909417
8.547500,-0.225951,0.912418
8.550000,-0.121833,0.915405
8.552500,-0.082038,0.918377
8.555000,0.264880,0.921334
8.557500,0.181789,0.924275
8.560000,0.147426,0.927200
8.562500,0.171589,0.930110
8.565000,-0.042499,0.933004
8.567500,-0.010788,0.935881
8.570000,-0.029428,0.938742
8.572500,-0.140228,0.941587
8.575000,-0.209471,0.944414
8.577500,-0.174322,0.947225
8.580000,-0.066450,0.950018
8.582500,0.189788,0.952794
8.585000,0.330337,0.955552
8.587500,0.091722,0.958292
8.590000,-0.089587,0.961015
8.592500,0.038797,0.963718
8.595000,-0.207018,0.966404
8.597500,-0.168332,0.969071
8.600000,0.073044,0.971719
8.602500,-0.034217,0.974348
8.605000,-0.342528,0.976958
8.607500,-0.006891,0.979548
8.610000,0.456160,0.982119
8.612500,0.319886,0.984670
8.615000,0.188402,0.987201
8.617500,0.126179,0.989712
8.620000,0.013929,0.992202
8.622500,-0.071178,0.994672
8.625000,-0.095545,0.997121
8.627500,-0.124578,0.999549
8.630000,-0.307380,1.001957
8.632500,-0.239880,1.004342
8.635000,0.291498,1.006707
8.637500,0.289681,1.009050
8.640000,0.269379,1.011371
8.642500,0.063247,1.013670
8.645000,0.085720,1.015947
8.647500,-0.332599,1.018202
8.650000,-0.075252,1.020434
8.652500,-0.007328,1.022643
8.655000,0.102541,1.024830
8.657500,-0.234733,1.026993
8.660000,-0.179180,1.029134
8.662500,0.138820,1.031251
8.665000,0.279956,1.033345
8.667500,-0.002834,1.035415
8.670000,-0.074085,1.037461
8.672500,-0.038706,1.039484
8.675000,-0.223984,1.041482
8.677500,-0.279273,1.043456
8.680000,-0.113398,1.045405
8.682500,-0.203698,1.047330
8.685000,-0.034695,1.049231
8.687500,0.149165,1.051106
8.690000,0.131421,1.052957
8.692500,0.293257,1.054782
8.695000,0.202057,1.056582
8.697500,-0.003748,1.058356
8.700000,-0.077469,1.060106
8.702500,-0.348550,1.061829
8.705000,0.000062,1.063526
8.707500,0.021713,1.065198
8.710000,-0.201776,1.066843
8.712500,-0.122940,1.068463
8.715000,0.130049,1.070056
8.717500,0.329423,1.071622
8.720000,0.229924,1.073162
8.722500,-0.064930,1.074675
8.725000,0.006429,1.076162
8.727500,-0.173967,1.077621
8.730000,-0.142284,1.079053
8.732500,0.041554,1.080459
8.735000,-0.059911,1.081836
8.737500,-0.178028,1.083187
8.740000,0.087225,1.084510
8.742500,0.157383,1.085806
8.745000,0.428709,1.087073
8.747500,0.286669,1.088313
8.750000,-0.054705,1.089525
8.752500,-0.203189,1.090709
8.755000,-0.306074,1.091865
8.757500,-0.030082,1.092993
8.760000,-0.099859,1.094093
8.762500,0.167138,1.095164
8.765000,-0.043569,1.096207
8.767500,0.045290,1.097221
8.770000,0.269513,1.098207
8.772500,0.306943,1.099164
8.775000,0.223062,1.100093
8.777500,-0.066151,1.100992
8.780000,-0.299138,1.101863
8.782500,-0.175082,1.102704
8.785000,-0.158563,1.103517
8.787500,0.109599,1.104301
8.790000,0.199878,1.105055
8.792500,0.094821,1.105780
8.795000,0.109564,1.106476
8.797500,0.281472,1.107143
8.800000,0.085099,1.107780
8.802500,-0.042553,1.108388
8.805000,-0.089289,1.108967
8.807500,-0.290507,1.109516
8.810000,-0.268568,1.110035
8.812500,-0.168211,1.110525
8.815000,0.223434,1.110985
8.817500,-0.083935,1.111416
8.820000,-0.045317,1.111817
8.822500,0.220583,1.112188
8.825000,0.157076,1.112529
8.827500,0.086543,1.112841
8.830000,-0.090019,1.113123
8.832500,-0.158088,1.113375
8.835000,-0.243981,1.113597
8.837500,-0.171005,1.113789
8.840000,-0.106327,1.113952
8.842500,0.232283,1.114084
8.845000,-0.083552,1.114187
8.847500,0.184415,1.114260
8.850000,0.239796,1.114303
8.852500,0.142380,1.114316
8.855000,0.181344,1.114299
8.857500,0.067459,1.114252
8.860000,-0.162511,1.114175
8.862500,-0.438896,1.114069
8.865000,-0.275074,1.113932
8.867500,0.134044,1.113766
8.870000,0.016972,1.113570
8.872500,-0.005553,1.113344
8.875000,0.117230,1.113088
8.877500,0.168811,1.112803
8.880000,0.114558,1.112488
8.882500,-0.007411,1.112143
8.885000,-0.130926,1.111768
8.887500,-0.094917,1.111364
8.890000,-0.454032,1.110930
8.892500,-0.081097,1.110466
8.895000,0.165289,1.109973
8.897500,0.150051,1.109451
8.900000,0.124556,1.108899
8.902500,0.198946,1.108317
8.905000,-0.021112,1.107706
8.907500,-0.023113,1.107066
8.910000,-0.039840,1.106397
8.912500,-0.250318,1.105698
8.915000,-0.140203,1.104970
8.917500,-0.243296,1.104213
8.920000,0.043282,1.103428
8.922500,0.234475,1.102613
8.925000,0.052504,1.101769
8.927500,0.000347,1.100897
8.930000,-0.008023,1.099995
8.932500,0.136175,1.099065
8.935000,-0.051034,1.098107
8.937500,-0.102212,1.097120
8.940000,-0.221287,1.096104
8.942500,-0.198686,1.095060
8.945000,-0.056352,1.093988
8.947500,0.160210,1.092888
8.950000,0.245644,1.091760
8.952500,0.164720,1.090603
8.955000,-0.081916,1.089419
8.957500,0.119794,1.088207
8.960000,-0.019232,1.086967
8.962500,-0.138992,1.085700
8.965000,-0.156455,1.084405
8.967500,-0.051879,1.083083
8.970000,-0.412542,1.081733
8.972500,0.050808,1.080357
8.975000,0.286943,1.078953
8.977500,0.280560,1.077522
8.980000,0.130887,1.076065
8.982500,-0.059422,1.074580
8.985000,0.116153,1.073069
8.987500,0.068028,1.071532
8.990000,-0.002258,1.069968
8.992500,-0.171820,1.068378
8.995000,-0.288424,1.066762
8.997500,-0.123325,1.065120
9.000000,-0.116087,1.063453
9.002500,0.179056,1.061759
9.005000,0.351858,1.060040
9.007500,0.185352,1.058295
9.010000,0.151969,1.056526
9.012500,-0.133900,1.054731
9.015000,0.007788,1.052911
9.017500,-0.053480,1.051066
9.020000,-0.014565,1.049196
9.022500,-0.319230,1.047302
9.025000,-0.171557,1.045383
9.027500,-0.012624,1.043440
9.030000,0.159714,1.041474
9.032500,0.267115,1.039483
9.035000,-0.052477,1.037468
9.037500,-0.107949,1.035429
9.040000,0.069249,1.033367
9.042500,-0.172931,1.031282
9.045000,-0.113686,1.029174
9.047500,-0.052427,1.027042
9.050000,-0.384139,1.024888
9.052500,-0.019189,1.022711
9.055000,0.283761,1.020512
9.057500,0.257659,1.018290
9.060000,0.181488,1.016046
9.062500,-0.010823,1.013780
9.065000,0.081349,1.011492
9.067500,-0.118552,1.009183
9.070000,-0.241650,1.006852
9.072500,-0.027636,1.004500
9.075000,0.011767,1.002127
9.077500,-0.323321,0.999732
9.080000,-0.092663,0.997318
9.082500,0.370095,0.994882
9.085000,0.134234,0.992426
9.087500,0.139850,0.989950
9.090000,0.114219,0.987454
9.092500,-0.121766,0.984938
9.095000,-0.034507,0.982403
9.097500,-0.142896,0.979848
9.100000,-0.047131,0.977274
9.102500,-0.322093,0.974680
9.105000,-0.136928,0.972068
9.107500,-0.072842,0.969437
9.110000,0.459579,0.966788
9.112500,0.277478,0.964121
9.115000,0.082603,0.961435
9.117500,0.079951,0.958732
9.120000,-0.081422,0.956011
9.122500,-0.009887,0.953272
9.125000,-0.032909,0.950516
9.127500,-0.200798,0.947743
9.130000,-0.141075,0.944953
9.132500,-0.207110,0.942147
9.135000,0.208666,0.939324
9.137500,0.237361,0.936484
9.140000,0.288400,0.933629
9.142500,-0.114013,0.930758
9.145000,-0.225528,0.927871
9.147500,-0.168031,0.924969
9.150000,-0.149637,0.922051
9.152500,0.120219,0.919119
9.155000,-0.021341,0.916171
9.157500,-0.149625,0.913209
9.160000,0.041561,0.910233
9.162500,0.105142,0.907242
9.165000,0.450202,0.904238
9.167500,0.058314,0.901219
9.170000,-0.050155,0.898188
9.172500,-0.077319,0.895142
9.175000,-0.185084,0.892084
9.177500,-0.211869,0.889013
9.180000,-0.033372,0.885929
9.182500,-0.168714,0.882832
9.185000,-0.042190,0.879724
9.187500,0.024716,0.876603
9.190000,0.229356,0.873470
9.192500,0.184361,0.870326
9.195000,0.148108,0.867170
9.197500,0.069702,0.864003
9.200000,-0.270628,0.860825
9.202500,-0.131074,0.857637
9.205000,0.029596,0.854437
9.207500,0.135822,0.851228
9.210000,-0.162632,0.848008
9.212500,0.035813,0.844778
9.215000,0.034232,0.841539
9.217500,0.425607,0.838290
9.220000,0.211312,0.835032
9.222500,-0.015031,0.831764
9.225000,-0.011196,0.828488
9.227500,-0.210013,0.825204
9.230000,-0.121597,0.821910
9.232500,-0.070747,0.818609
9.235000,0.191736,0.815300
9.237500,-0.107321,0.811982
9.240000,-0.181350,0.808658
9.242500,0.082076,0.805326
9.245000,0.429054,0.801986
9.247500,0.086493,0.798640
9.250000,0.155053,0.795287
9.252500,-0.255143,0.791928
9.255000,-0.200222,0.788562
9.257500,-0.197640,0.785190
9.260000,-0.020920,0.781813
9.262500,-0.092021,0.778429
9.265000,0.092425,0.775040
9.267500,0.125212,0.771646
9.270000,0.144384,0.768247
9.272500,0.254544,0.764843
9.275000,0.205512,0.761434
9.277500,-0.074197,0.758021
9.280000,-0.138211,0.754604
9.282500,-0.292444,0.751183
9.285000,-0.260921,0.747758
9.287500,0.088367,0.744329
9.290000,-0.067508,0.740897
9.292500,0.112252,0.737461
9.295000,0.207439,0.734023
9.297500,0.332239,0.730582
9.300000,0.197372,0.727138
9.302500,-0.094521,0.723692
9.305000,-0.110310,0.720244
9.307500,-0.144234,0.716793
9.310000,-0.319397,0.713341
9.312500,0.101149,0.709887
9.315000,0.110417,0.706432
9.317500,0.014124,0.702976
9.320000,0.050179,0.699518
9.322500,0.182032,0.696060
9.325000,0.157637,0.692601
9.327500,0.222382,0.689142
9.330000,-0.052660,0.685682
9.332500,-0.209586,0.682222
9.335000,-0.316691,0.678763
9.337500,-0.099113,0.675303
9.340000,-0.058762,0.671845
9.342500,0.163211,0.668386
9.345000,-0.079918,0.664929
9.347500,-0.110138,0.661473
9.350000,0.050140,0.658018
9.352500,0.319972,0.654564
9.355000,0.103379,0.651112
9.357500,0.102269,0.647662
9.360000,-0.300294,0.644214
9.362500,-0.169467,0.640767
9.365000,-0.149291,0.637323
9.367500,-0.005783,0.633882
9.370000,0.224972,0.630443
9.372500,-0.001725,0.627007
9.375000,0.015697,0.623574
9.377500,0.172006,0.620144
9.380000,0.165394,0.616717
9.382500,-0.136327,0.613294
9.385000,-0.112826,0.609875
9.387500,-0.262061,0.606459
9.390000,-0.155452,0.603047
9.392500,-0.134008,0.599640
9.395000,0.058044,0.596237
9.397500,0.109827,0.592838
9.400000,0.058187,0.589444
9.402500,0.197099,0.586054
9.405000,0.168759,0.582670
9.407500,0.049240,0.579290
9.410000,0.100328,0.575916
9.412500,-0.152952,0.572547
9.415000,-0.142195,0.569184
9.417500,-0.397362,0.565826
9.420000,-0.130772,0.562474
9.422500,0.080519,0.559129
9.425000,0.172672,0.555789
9.427500,-0.082815,0.552455
9.430000,0.078898,0.549128
9.432500,0.102172,0.545808
9.435000,-0.057968,0.542494
9.437500,-0.138620,0.539187
9.440000,-0.106528,0.535887
9.442500,-0.433793,0.532594
9.445000,-0.245858,0.529308
9.447500,0.069096,0.526030
9.450000,0.392752,0.522759
9.452500,-0.024904,0.519495
9.455000,0.211666,0.516240
9.457500,0.031840,0.512992
9.460000,0.171968,0.509752
9.462500,-0.171259,0.506521
9.465000,-0.084020,0.503297
9.467500,-0.146114,0.500082
9.470000,-0.439586,0.496875
9.472500,-0.012685,0.493677
9.475000,0.136237,0.490488
9.477500,0.128191,0.487308
9.480000,0.043434,0.484136
9.482500,-0.072804,0.480973
9.485000,0.197676,0.477820
9.487500,-0.167046,0.474676
9.490000,-0.182453,0.471541
9.492500,-0.006059,0.468416
9.495000,-0.083706,0.465300
9.497500,-0.147908,0.462194
9.500000,-0.084600,0.459098
9.502500,0.200829,0.456011
9.505000,0.181706,0.452935
9.507500,0.111514,0.449868
9.510000,0.095042,0.446812
9.512500,-0.121651,0.443766
9.515000,-0.079240,0.440730
9.517500,-0.078124,0.437705
9.520000,-0.083334,0.434690
9.522500,-0.311775,0.431686
9.525000,-0.292497,0.428693
9.527500,0.226241,0.425710
9.530000,0.335184,0.422738
9.532500,0.343655,0.419777
9.535000,0.134600,0.416827
9.537500,0.105628,0.413889
9.540000,0.018808,0.410961
9.542500,-0.122363,0.408045
9.545000,-0.017715,0.405140
9.547500,0.018650,0.402246
9.550000,-0.403966,0.399364
9.552500,-0.188918,0.396493
9.555000,0.262189,0.393634
9.557500,0.292706,0.390787
9.560000,0.214693,0.387951
9.562500,-0.016555,0.385127
9.565000,0.127000,0.382315
9.567500,-0.047637,0.379515
9.570000,-0.166380,0.376727
9.572500,-0.121858,0.373951
9.575000,-0.181397,0.371187
9.577500,-0.173073,0.368435
9.580000,-0.149072,0.365695
9.582500,0.115485,0.362968
9.585000,0.166973,0.360253
9.587500,-0.010691,0.357550
9.590000,-0.012664,0.354860
9.592500,-0.224468,0.352182
9.595000,-0.255649,0.349516
9.597500,0.019689,0.346863
9.600000,-0.017280,0.344223
9.602500,-0.167527,0.341595
9.605000,-0.149696,0.338980
9.607500,0.070338,0.336378
9.610000,0.435566,0.333788
9.612500,0.124070,0.331211
9.615000,0.095820,0.328647
9.617500,-0.004699,0.326096
9.620000,-0.014362,0.323557
9.622500,-0.034508,0.321032
9.625000,-0.160446,0.318519
9.627500,-0.158760,0.316019
9.630000,-0.106013,0.313532
9.632500,-0.021385,0.311059
9.635000,0.150367,0.308598
9.637500,0.446783,0.306150
9.640000,0.078019,0.303716
9.642500,-0.033116,0.301294
9.645000,0.051203,0.298886
9.647500,-0.146147,0.296490
9.650000,-0.285015,0.294108
9.652500,0.123634,0.291739
9.655000,-0.174331,0.289383
9.657500,-0.167420,0.287041
9.660000,-0.154463,0.284711
9.662500,0.193553,0.282395
9.665000,0.342617,0.280092
9.667500,0.037738,0.277802
9.670000,-0.109005,0.275525
9.672500,0.007289,0.273261
9.675000,-0.098391,0.271011
9.677500,-0.228406,0.268774
9.680000,-0.126730,0.266550
9.682500,-0.041565,0.264340
9.685000,-0.167536,0.262143
9.687500,0.123622,0.259959
9.690000,0.157889,0.257788
9.692500,0.201784,0.255630
9.695000,0.040482,0.253486
9.697500,-0.025986,0.251355
9.700000,-0.325287,0.249237
9.702500,-0.031502,0.247132
9.705000,-0.016235,0.245040
9.707500,0.014525,0.242962
9.710000,-0.004663,0.240897
9.712500,-0.002069,0.238845
9.715000,0.022324,0.236806
9.717500,0.024648,0.234780
9.720000,0.013439,0.232768
9.722500,0.010415,0.230768
9.725000,-0.007740,0.228782
9.727500,-0.014892,0.226809
9.730000,-0.013867,0.224849
9.732500,0.000441,0.222901
9.735000,0.006127,0.220967
9.737500,-0.015306,0.219046
9.740000,-0.009322,0.217138
9.742500,0.010125,0.215243
9.745000,0.013057,0.213360
9.747500,0.021131,0.211491
9.750000,-0.003985,0.209635
9.752500,-0.016552,0.207791
9.755000,-0.025481,0.205960
9.757500,-0.026955,0.204142
9.760000,0.012227,0.202337
9.762500,0.012667,0.200545
9.765000,-0.014983,0.198765
9.767500,0.005315,0.196998
9.770000,0.012284,0.195244
9.772500,0.008564,0.193502
9.775000,0.000226,0.191773
9.777500,0.000078,0.190056
9.780000,-0.024900,0.188352
9.782500,-0.034082,0.186661
9.785000,-0.021739,0.184982
9.787500,0.000662,0.183315
9.790000,0.009492,0.181661
9.792500,-0.000323,0.180019
9.795000,0.017371,0.178389
9.797500,0.029881,0.176772
9.800000,0.018033,0.175167
9.802500,-0.001377,0.173574
9.805000,-0.009218,0.171994
9.807500,-0.017827,0.170425
9.810000,-0.028548,0.168868
9.812500,-0.013401,0.167324
9.815000,0.000583,0.165792
9.817500,0.001329,0.164271
9.820000,-0.002454,0.162762
9.822500,0.022561,0.161266
9.825000,0.026920,0.159781
9.827500,0.005159,0.158308
9.830000,0.011364,0.156846
9.832500,-0.006398,0.155396
9.835000,-0.014868,0.153958
9.837500,-0.010874,0.152532
9.840000,0.005011,0.151117
9.842500,0.012643,0.149713
9.845000,-0.003620,0.148321
9.847500,-0.004258,0.146940
9.850000,0.010992,0.145571
9.852500,0.026699,0.144213
9.855000,0.001672,0.142866
9.857500,0.000964,0.141531
9.860000,-0.003672,0.140206
9.862500,-0.018487,0.138893
9.865000,-0.011823,0.137591
9.867500,0.012264,0.136300
9.870000,0.020614,0.135019
9.872500,-0.006813,0.133750
9.875000,-0.001291,0.132491
9.877500,0.023747,0.131243
9.880000,0.017360,0.130006
9.882500,0.005353,0.128780
9.885000,0.000169,0.127564
9.887500,-0.028928,0.126359
9.890000,-0.033100,0.125164
9.892500,-0.014642,0.123980
9.895000,0.006145,0.122806
9.897500,0.021604,0.121643
9.900000,0.012479,0.120490
9.902500,0.000230,0.119347
9.905000,0.012657,0.118214
9.907500,-0.004153,0.117091
9.910000,0.000773,0.115979
9.912500,-0.018434,0.114876
9.915000,-0.031273,0.113784
9.917500,-0.024527,0.112701
9.920000,0.004016,0.111628
9.922500,0.014653,0.110565
9.925000,0.017893,0.109512
9.927500,-0.003389,0.108468
9.930000,0.013347,0.107434
9.932500,0.014020,0.106410
9.935000,-0.011066,0.105395
9.937500,-0.010550,0.104390
9.940000,-0.017572,0.103394
9.942500,-0.013046,0.102407
9.945000,-0.005329,0.101430
9.947500,-0.000549,0.100461
9.950000,0.013892,0.099502
9.952500,0.000884,0.098552
9.955000,0.011331,0.097611
9.957500,0.000747,0.096680
9.960000,-0.006964,0.095757
9.962500,0.002639,0.094842
9.965000,-0.015534,0.093937
9.967500,-0.028667,0.093041
9.970000,-0.015540,0.092153
9.972500,0.000703,0.091273
9.975000,0.006850,0.090403
9.977500,0.012883,0.089541
9.980000,0.012320,0.088687
9.982500,0.000632,0.087842
9.985000,0.015174,0.087005
9.987500,-0.009812,0.086176
9.990000,-0.006255,0.085356
9.992500,-0.017646,0.084544
9.995000,-0.024490,0.083740
9.997500,-0.018533,0.082943
10.000000,-0.006547,0.082155
10.002500,0.023886,0.081375
10.005000,0.019594,0.080603
10.007500,-0.004191,0.079839
10.010000,0.006942,0.079082
10.012500,0.012521,0.078333
10.015000,-0.006149,0.077592
10.017500,0.001084,0.076858
10.020000,0.003543,0.076132
10.022500,-0.015767,0.075413
10.025000,-0.009762,0.074702
10.027500,0.008978,0.073998
10.030000,0.019792,0.073302
10.032500,0.016696,0.072612
10.035000,0.011468,0.071930
10.037500,-0.006565,0.071255
10.040000,0.005948,0.070587
10.042500,-0.005970,0.069927
10.045000,-0.011475,0.069273
10.047500,-0.014467,0.068626
10.050000,-0.021262,0.067986
10.052500,-0.014784,0.067352
10.055000,0.006736,0.066726
10.057500,0.027609,0.066106
10.060000,0.017505,0.065493
10.062500,0.005284,0.064886
10.065000,0.001282,0.064286
10.067500,-0.006284,0.063692
10.070000,-0.013492,0.063105
10.072500,-0.009277,0.062524
10.075000,-0.009704,0.061950
10.077500,-0.023087,0.061381
10.080000,-0.011155,0.060819
10.082500,0.023498,0.060263
10.085000,0.034499,0.059714
10.087500,0.015252,0.059170
10.090000,-0.000080,0.058632
10.092500,-0.009804,0.058100
10.095000,-0.011897,0.057574
10.097500,-0.014110,0.057054
10.100000,-0.006056,0.056540
10.102500,-0.024107,0.056031
10.105000,-0.022622,0.055528
10.107500,0.010002,0.055031
10.110000,0.016593,0.054539
10.112500,0.023088,0.054053
10.115000,-0.004298,0.053572
10.117500,-0.008209,0.053097
10.120000,-0.012051,0.052627
10.122500,-0.012366,0.052162
10.125000,-0.012459,0.051703
10.127500,-0.009811,0.051249
10.130000,-0.002659,0.050800
10.132500,-0.020364,0.050356
10.135000,0.006260,0.049918
10.137500,0.034177,0.049484
10.140000,0.025955,0.049055
10.142500,-0.003696,0.048632
10.145000,-0.000691,0.048213
10.147500,-0.007373,0.047799
10.150000,-0.008996,0.047390
10.152500,0.009757,0.046985
10.155000,-0.016020,0.046586
10.157500,-0.021680,0.046191
10.160000,0.001117,0.045800
10.162500,0.022839,0.045414
10.165000,0.025317,0.045033
10.167500,0.016614,0.044656
10.170000,-0.002137,0.044284
10.172500,-0.010509,0.043915
10.175000,-0.019015,0.043552
10.177500,-0.004123,0.043192
10.180000,-0.007167,0.042837
10.182500,-0.014546,0.042486
10.185000,-0.001718,0.042139
10.187500,-0.001431,0.041797
10.190000,0.014739,0.041458
10.192500,0.021571,0.041124
10.195000,0.003870,0.040793
10.197500,0.008397,0.040466
10.200000,-0.027487,0.040144
10.202500,-0.024247,0.039825
10.205000,-0.019489,0.039510
10.207500,0.005416,0.039199
10.210000,0.000649,0.038891
10.212500,-0.014315,0.038588
10.215000,0.003991,0.038288
10.217500,0.029160,0.037991
10.220000,0.016410,0.037698
10.222500,-0.001564,0.037409
10.225000,-0.006706,0.037123
10.227500,-0.006491,0.036841
10.230000,-0.025366,0.036562
10.232500,-0.003173,0.036287
10.235000,0.013665,0.036015
10.237500,-0.004997,0.035746
10.240000,-0.002877,0.035481
10.242500,0.022779,0.035218
10.245000,0.010254,0.034959
10.247500,0.012960,0.034704
10.250000,0.010237,0.034451
10.252500,-0.006278,0.034201
10.255000,-0.024471,0.033955
10.257500,-0.002232,0.033711
10.260000,0.011520,0.033471
10.262500,0.017568,0.033234
10.265000,-0.016506,0.032999
10.267500,0.013600,0.032767
10.270000,0.006470,0.032539
10.272500,0.014564,0.032313
10.275000,-0.004600,0.032090
10.277500,-0.015828,0.031869
10.280000,-0.027791,0.031652
10.282500,-0.025466,0.031437
10.285000,-0.017630,0.031224
10.287500,0.010677,0.031015
10.290000,-0.004844,0.030808
10.292500,0.008228,0.030603
10.295000,0.005864,0.030402
10.297500,0.019455,0.030202
10.300000,0.008172,0.030005
10.302500,0.006789,0.029811
10.305000,-0.011277,0.029619
10.307500,-0.013437,0.029429
10.310000,-0.027910,0.029242
10.312500,0.008293,0.029057
10.315000,0.004056,0.028875
10.317500,-0.007418,0.028694
10.320000,0.003724,0.028516
10.322500,0.016056,0.028341
10.325000,0.016418,0.028167
10.327500,0.015750,0.027995
10.330000,-0.007506,0.027826
10.332500,-0.016179,0.027659
10.335000,-0.027275,0.027494
10.337500,-0.018817,0.027331
10.340000,0.004109,0.027170
10.342500,0.008105,0.027011
10.345000,0.006570,0.026854
10.347500,0.005651,0.026699
10.350000,0.017755,0.026546
10.352500,0.013630,0.026394
10.355000,0.002236,0.026245
10.357500,-0.000515,0.026098
10.360000,-0.024581,0.025952
10.362500,-0.026923,0.025808
10.365000,-0.011126,0.025666
10.367500,0.016458,0.025526
10.370000,0.021140,0.025387
10.372500,0.006791,0.025251
10.375000,0.006249,0.025115
10.377500,0.004283,0.024982
10.380000,0.020034,0.024850
10.382500,0.002530,0.024720
10.385000,0.000018,0.024591
10.387500,-0.014013,0.024464
10.390000,-0.023291,0.024339
10.392500,-0.002870,0.024215
10.395000,0.021154,0.024093
10.397500,0.001309,0.023972
10.400000,0.007427,0.023853
10.402500,-0.004233,0.023735
10.405000,0.020173,0.023618
10.407500,0.000286,0.023503
10.410000,-0.000168,0.023390
10.412500,-0.012448,0.023277
10.415000,-0.024105,0.023166
10.417500,-0.020749,0.023057
10.420000,0.012622,0.022948
10.422500,0.016229,0.022842
10.425000,0.010386,0.022736
10.427500,0.001658,0.022632
10.430000,0.010153,0.022528
10.432500,0.009732,0.022426
10.435000,-0.004811,0.022326
10.437500,-0.007394,0.022226
10.440000,-0.015563,0.022128
10.442500,-0.033029,0.022031
10.445000,-0.015944,0.021935
10.447500,0.014758,0.021840
10.450000,0.008308,0.021746
10.452500,0.002246,0.021653
10.455000,-0.001751,0.021562
10.457500,0.006313,0.021471
10.460000,0.012095,0.021382
10.462500,-0.010090,0.021293
10.465000,-0.005580,0.021206
10.467500,-0.019666,0.021120
10.470000,-0.020276,0.021034
10.472500,-0.019617,0.020950
10.475000,0.020577,0.020866
10.477500,0.024360,0.020784
10.480000,0.005899,0.020702
10.482500,0.012865,0.020621
10.485000,-0.001439,0.020541
10.487500,-0.011073,0.020463
10.490000,0.004240,0.020384
10.492500,-0.011384,0.020307
10.495000,-0.009306,0.020231
10.497500,-0.023362,0.020155
10.500000,-0.010576,0.020081
10.502500,0.030495,0.020007
10.505000,0.017279,0.019934
10.507500,0.016748,0.019861
10.510000,0.008616,0.019790
10.512500,0.008465,0.019719
10.515000,-0.016172,0.019649
10.517500,0.005477,0.019580
10.520000,-0.018191,0.019511
10.522500,-0.021533,0.019443
10.525000,-0.010409,0.019376
10.527500,0.000108,0.019310
10.530000,0.029343,0.019244
10.532500,0.026047,0.019179
10.535000,0.001453,0.019114
10.537500,0.013972,0.019051
10.540000,-0.014683,0.018987
10.542500,0.001128,0.018925
10.545000,-0.006105,0.018863
10.547500,-0.007830,0.018802
10.550000,-0.021820,0.018741
10.552500,-0.014642,0.018681
10.555000,0.026305,0.018621
10.557500,0.026799,0.018562
10.560000,0.009846,0.018504
10.562500,-0.006629,0.018446
10.565000,-0.007305,0.018388
10.567500,-0.019268,0.018331
10.570000,0.003580,0.018275
10.572500,-0.008970,0.018219
10.575000,-0.016220,0.018164
10.577500,-0.018498,0.018109
10.580000,0.008894,0.018055
10.582500,0.015764,0.018001
10.585000,0.029731,0.017948
10.587500,0.019190,0.017895
10.590000,0.001432,0.017842
10.592500,-0.015295,0.017790
10.595000,-0.011818,0.017738
10.597500,-0.015457,0.017687
10.600000,0.005209,0.017636
10.602500,-0.003726,0.017586
10.605000,-0.014988,0.017536
10.607500,0.012905,0.017486
10.610000,0.017047,0.017437
10.612500,0.015342,0.017389
10.615000,0.017574,0.017340
10.617500,0.008272,0.017292
10.620000,-0.015814,0.017244
10.622500,-0.015700,0.017197
10.625000,-0.014845,0.017150
10.627500,0.004159,0.017103
10.630000,-0.005093,0.017057
10.632500,-0.009383,0.017011
10.635000,0.024848,0.016965
10.637500,0.017200,0.016920
10.640000,0.016363,0.016875
10.642500,-0.005674,0.016830
10.645000,-0.007494,0.016786
10.647500,-0.011978,0.016742
10.650000,-0.001226,0.016698
10.652500,-0.000953,0.016654
10.655000,0.003514,0.016611
10.657500,-0.014679,0.016568
10.660000,-0.007769,0.016525
10.662500,0.014598,0.016483
10.665000,0.032198,0.016441
10.667500,0.018119,0.016399
10.670000,0.005582,0.016357
10.672500,-0.005304,0.016315
10.675000,-0.015082,0.016274
10.677500,0.000958,0.016233
10.680000,0.000871,0.016192
10.682500,-0.010911,0.016152
10.685000,-0.005524,0.016111
10.687500,0.015331,0.016071
10.690000,0.017777,0.016031
10.692500,0.012416,0.015991
10.695000,0.019586,0.015952
10.697500,0.001776,0.015912
10.700000,-0.018360,0.015873
10.702500,-0.012267,0.015834
10.705000,-0.008174,0.015795
10.707500,0.011420,0.015757
10.710000,-0.009526,0.015718
10.712500,-0.011707,0.015680
10.715000,0.008887,0.015642
10.717500,0.015388,0.015604
10.720000,0.019293,0.015566
10.722500,0.008349,0.015529
10.725000,-0.011961,0.015491
10.727500,-0.013694,0.015454
10.730000,-0.017999,0.015416
10.732500,-0.008725,0.015379
10.735000,-0.004136,0.015342
10.737500,-0.017281,0.015306
10.740000,0.007673,0.015269
10.742500,0.014221,0.015232
10.745000,0.022087,0.015196
10.747500,0.007609,0.015160
10.750000,0.001104,0.015123
10.752500,-0.009500,0.015087
10.755000,-0.017526,0.015051
10.757500,-0.003875,0.015016
10.760000,-0.000304,0.014980
10.762500,0.012246,0.014944
10.765000,-0.008191,0.014909
10.767500,0.002495,0.014873
10.770000,0.008651,0.014838
10.772500,0.021867,0.014803
10.775000,-0.003585,0.014767
10.777500,-0.012020,0.014732
10.780000,-0.020281,0.014697
10.782500,-0.029945,0.014662
10.785000,-0.008072,0.014628
10.787500,0.015063,0.014593
10.790000,-0.002661,0.014558
10.792500,-0.007727,0.014524
10.795000,0.010684,0.014489
10.797500,0.016094,0.014455
10.800000,0.016733,0.014420
10.802500,0.002214,0.014386
10.805000,-0.012242,0.014352
10.807500,-0.011858,0.014317
10.810000,-0.031571,0.014283
10.812500,0.008875,0.014249
10.815000,-0.000027,0.014215
10.817500,0.002411,0.014181
10.820000,-0.001620,0.014147
10.822500,-0.001755,0.014113
10.825000,0.027430,0.014079
10.827500,0.009397,0.014046
10.830000,0.009060,0.014012
10.832500,-0.003863,0.013978
10.835000,-0.016979,0.013944
10.837500,-0.009541,0.013911
10.840000,0.008348,0.013877
10.842500,0.025720,0.013844
